0.000000000000000000e+00,1.743094152350778359e+03
4.000000000000000083e-03,1.660875909843619638e+03
8.000000000000000167e-03,1.662849034556053994e+03
1.200000000000000025e-02,1.611894436371531128e+03
1.600000000000000033e-02,1.643243028737364966e+03
2.000000000000000042e-02,1.647034576968201236e+03
2.299999999999999961e-02,1.638278309319048503e+03
2.699999999999999969e-02,1.634775723469602781e+03
3.099999999999999978e-02,1.650220959971247112e+03
3.500000000000000333e-02,1.639426023596986624e+03
3.899999999999999994e-02,1.644790629487979913e+03
4.299999999999999656e-02,1.653962957534642101e+03
4.700000000000000011e-02,1.651315059433345596e+03
5.099999999999999672e-02,1.627527104053896437e+03
5.500000000000000028e-02,1.624866086914746347e+03
5.899999999999999689e-02,1.619378558876887155e+03
6.300000000000000044e-02,1.616301542421417253e+03
6.600000000000000311e-02,1.629565117010082531e+03
7.000000000000000666e-02,1.635546239987476838e+03
7.399999999999999634e-02,1.639351717373771862e+03
7.799999999999999989e-02,1.649033739993491054e+03
8.200000000000000344e-02,1.643556972863845431e+03
8.599999999999999312e-02,1.645644269127748203e+03
8.999999999999999667e-02,1.642024430998391836e+03
9.400000000000000022e-02,1.637766060471425817e+03
9.800000000000000377e-02,1.644398100509028154e+03
1.019999999999999934e-01,1.655914181126664062e+03
1.049999999999999961e-01,1.661282731434333755e+03
1.089999999999999997e-01,1.669529637372084608e+03
1.130000000000000032e-01,1.682552179487982357e+03
1.170000000000000068e-01,1.688509990805413508e+03
1.209999999999999964e-01,1.691032815471689901e+03
1.250000000000000000e-01,1.707499647238409580e+03
1.290000000000000036e-01,1.707325264028116408e+03
1.330000000000000071e-01,1.694548696885962727e+03
1.370000000000000107e-01,1.688501198851814252e+03
1.409999999999999865e-01,1.682715362409633144e+03
1.449999999999999900e-01,1.673035625500984679e+03
1.479999999999999927e-01,1.674418873482580238e+03
1.519999999999999962e-01,1.678899986614592535e+03
1.559999999999999998e-01,1.669243481463273156e+03
1.600000000000000033e-01,1.649901867759530660e+03
1.640000000000000069e-01,1.640229450807774128e+03
1.680000000000000104e-01,1.628671306739932788e+03
1.719999999999999862e-01,1.614340955808344461e+03
1.759999999999999898e-01,1.611528313276974586e+03
1.799999999999999933e-01,1.617627508976168883e+03
1.839999999999999969e-01,1.629420911696306121e+03
1.880000000000000004e-01,1.654496357598641453e+03
1.910000000000000031e-01,1.689990240308329703e+03
1.950000000000000067e-01,1.722259799981489550e+03
1.990000000000000102e-01,1.749198685065255177e+03
2.030000000000000138e-01,1.772908077147741551e+03
2.069999999999999896e-01,1.790491106326342106e+03
2.109999999999999931e-01,1.811217723744100567e+03
2.149999999999999967e-01,1.834560584570655919e+03
2.190000000000000002e-01,1.852479772353188082e+03
2.230000000000000038e-01,1.862378300781953385e+03
2.270000000000000073e-01,1.853724615929669653e+03
2.300000000000000100e-01,1.819290377544221656e+03
2.340000000000000135e-01,1.758259045072391700e+03
2.379999999999999893e-01,1.680736138760961694e+03
2.419999999999999929e-01,1.594538397499408575e+03
2.459999999999999964e-01,1.507082820839363649e+03
2.500000000000000000e-01,1.421045124175228921e+03
2.540000000000000036e-01,1.340029537391390022e+03
2.580000000000000071e-01,1.264203040467476058e+03
2.620000000000000107e-01,1.192403195200800837e+03
2.660000000000000142e-01,1.127375464863720936e+03
2.700000000000000178e-01,1.067002279077829598e+03
2.730000000000000204e-01,1.013823234602723801e+03
2.770000000000000240e-01,9.664913133726182650e+02
2.810000000000000275e-01,9.310705736887293824e+02
2.849999999999999756e-01,9.073212071041217541e+02
2.889999999999999791e-01,8.938042445217291743e+02
2.929999999999999827e-01,8.889542978161857718e+02
2.969999999999999862e-01,8.878107787635821069e+02
3.009999999999999898e-01,8.889200452205815282e+02
3.049999999999999933e-01,8.899852918237821768e+02
3.089999999999999969e-01,8.906621186115097544e+02
3.130000000000000004e-01,8.906743329874315123e+02
3.160000000000000031e-01,8.891050404811337557e+02
3.200000000000000067e-01,8.873793880287508955e+02
3.240000000000000102e-01,8.863552910378163006e+02
3.280000000000000138e-01,8.901932056329312672e+02
3.320000000000000173e-01,9.025730208218246844e+02
3.360000000000000209e-01,9.242357525354703967e+02
3.400000000000000244e-01,9.514568989948951412e+02
3.439999999999999725e-01,9.826163396731720923e+02
3.479999999999999760e-01,1.012090740146936582e+03
3.519999999999999796e-01,1.039402525449384484e+03
3.549999999999999822e-01,1.066597925329435611e+03
3.589999999999999858e-01,1.091189132066282355e+03
3.629999999999999893e-01,1.110396342601822198e+03
3.669999999999999929e-01,1.124273434143470013e+03
3.709999999999999964e-01,1.137945549824631598e+03
3.750000000000000000e-01,1.150747483452232927e+03
3.790000000000000036e-01,1.165214914173724537e+03
3.830000000000000071e-01,1.186989196094206818e+03
3.870000000000000107e-01,1.210525940358872958e+03
3.910000000000000142e-01,1.228879002051323823e+03
3.950000000000000178e-01,1.244875944764143469e+03
3.980000000000000204e-01,1.258992769575928151e+03
4.020000000000000240e-01,1.267479080320574894e+03
4.060000000000000275e-01,1.272156342232427733e+03
4.099999999999999756e-01,1.279298700159770533e+03
4.139999999999999791e-01,1.285768528282041643e+03
4.179999999999999827e-01,1.289439252567256972e+03
4.219999999999999862e-01,1.298440576965706896e+03
4.259999999999999898e-01,1.312414308118751023e+03
4.299999999999999933e-01,1.324998908199436755e+03
4.339999999999999969e-01,1.336047065601183704e+03
4.380000000000000004e-01,1.341487817893333840e+03
4.410000000000000031e-01,1.341129395817701379e+03
4.450000000000000067e-01,1.336788468639031635e+03
4.490000000000000102e-01,1.333468430775822981e+03
4.530000000000000138e-01,1.334945288237656996e+03
4.570000000000000173e-01,1.336257528967637654e+03
4.610000000000000209e-01,1.339697135461636663e+03
4.650000000000000244e-01,1.343946834507411268e+03
4.689999999999999725e-01,1.348421951067604368e+03
4.729999999999999760e-01,1.353172847987692876e+03
4.769999999999999796e-01,1.361864244617444456e+03
4.799999999999999822e-01,1.370115812318293365e+03
4.839999999999999858e-01,1.375518367536396227e+03
4.879999999999999893e-01,1.380727573712763842e+03
4.919999999999999929e-01,1.383863639747766683e+03
4.959999999999999964e-01,1.377373177244616045e+03
5.000000000000000000e-01,1.364758204698401414e+03
5.040000000000000036e-01,1.353948181918876799e+03
5.080000000000000071e-01,1.352056734681168564e+03
5.120000000000000107e-01,1.355266688488804675e+03
5.160000000000000142e-01,1.366196375246790012e+03
5.200000000000000178e-01,1.380934959048144492e+03
5.230000000000000204e-01,1.389119406363410008e+03
5.270000000000000240e-01,1.392239173330317499e+03
5.310000000000000275e-01,1.398459979593550997e+03
5.350000000000000311e-01,1.405507912013764326e+03
5.390000000000000346e-01,1.417480511871387534e+03
5.430000000000000382e-01,1.434331867128214753e+03
5.470000000000000417e-01,1.453982748587470496e+03
5.510000000000000453e-01,1.469540620714538818e+03
5.550000000000000488e-01,1.487008318634858824e+03
5.590000000000000524e-01,1.509422240797589211e+03
5.629999999999999449e-01,1.526609156060661689e+03
5.659999999999999476e-01,1.535253249878602674e+03
5.699999999999999512e-01,1.541208386646665303e+03
5.739999999999999547e-01,1.544538381351220323e+03
5.779999999999999583e-01,1.546635108300318961e+03
5.819999999999999618e-01,1.551591347522410615e+03
5.859999999999999654e-01,1.558883528734748552e+03
5.899999999999999689e-01,1.560629099725479819e+03
5.939999999999999725e-01,1.554723413082673233e+03
5.979999999999999760e-01,1.550728517106551180e+03
6.019999999999999796e-01,1.548717129823066216e+03
6.049999999999999822e-01,1.548029749594099940e+03
6.089999999999999858e-01,1.548180186488924164e+03
6.129999999999999893e-01,1.549325237090976771e+03
6.169999999999999929e-01,1.545689934533099404e+03
6.209999999999999964e-01,1.542117232617858008e+03
6.250000000000000000e-01,1.541219169194434926e+03
6.290000000000000036e-01,1.544853419768797266e+03
6.330000000000000071e-01,1.552187561901198023e+03
6.370000000000000107e-01,1.560405711354627783e+03
6.410000000000000142e-01,1.565764444814501985e+03
6.450000000000000178e-01,1.567746963642482115e+03
6.480000000000000204e-01,1.568840713468629929e+03
6.520000000000000240e-01,1.573410103982312421e+03
6.560000000000000275e-01,1.584742519554105002e+03
6.600000000000000311e-01,1.600190695980856162e+03
6.640000000000000346e-01,1.624279019088658970e+03
6.680000000000000382e-01,1.653634729707117231e+03
6.720000000000000417e-01,1.682676334289950773e+03
6.760000000000000453e-01,1.709596636674744559e+03
6.800000000000000488e-01,1.737431640643558239e+03
6.840000000000000524e-01,1.765451893552815818e+03
6.879999999999999449e-01,1.788357054636220482e+03
6.909999999999999476e-01,1.805179184139667086e+03
6.949999999999999512e-01,1.812525925612998662e+03
6.989999999999999547e-01,1.813020339556471754e+03
7.029999999999999583e-01,1.807826777971157526e+03
7.069999999999999618e-01,1.799435036578845711e+03
7.109999999999999654e-01,1.792348828897054545e+03
7.149999999999999689e-01,1.783209393590820582e+03
7.189999999999999725e-01,1.770587123334702937e+03
7.229999999999999760e-01,1.753051937453601795e+03
7.269999999999999796e-01,1.725169435264121375e+03
7.299999999999999822e-01,1.693792729027157975e+03
7.339999999999999858e-01,1.663691409467888207e+03
7.379999999999999893e-01,1.638598087684753636e+03
7.419999999999999929e-01,1.622344515067007251e+03
7.459999999999999964e-01,1.617401029668885030e+03
7.500000000000000000e-01,1.624055717603579296e+03
7.540000000000000036e-01,1.635611415949229013e+03
7.580000000000000071e-01,1.648654250349347421e+03
7.620000000000000107e-01,1.663573465167565018e+03
7.660000000000000142e-01,1.678037567150518498e+03
7.700000000000000178e-01,1.690396008862099279e+03
7.730000000000000204e-01,1.703596449245498661e+03
7.770000000000000240e-01,1.715494295805969614e+03
7.810000000000000275e-01,1.727390315271925147e+03
7.850000000000000311e-01,1.737899262573191209e+03
7.890000000000000346e-01,1.747970658396224508e+03
7.930000000000000382e-01,1.757663763925314470e+03
7.970000000000000417e-01,1.766775141231494899e+03
8.010000000000000453e-01,1.776142957145199944e+03
8.050000000000000488e-01,1.787134107819070323e+03
8.090000000000000524e-01,1.792266505374437429e+03
8.129999999999999449e-01,1.790706003882453388e+03
8.159999999999999476e-01,1.786066921310830139e+03
8.199999999999999512e-01,1.778700008568349858e+03
8.239999999999999547e-01,1.768263131885108578e+03
8.279999999999999583e-01,1.760548695266098093e+03
8.319999999999999618e-01,1.752028516510497411e+03
8.359999999999999654e-01,1.743466781534218853e+03
8.399999999999999689e-01,1.739007881983030074e+03
8.439999999999999725e-01,1.735940167070682037e+03
8.479999999999999760e-01,1.733887101145247925e+03
8.519999999999999796e-01,1.730551141828500704e+03
8.549999999999999822e-01,1.725082355956565380e+03
8.589999999999999858e-01,1.720146767718343881e+03
8.629999999999999893e-01,1.713122011343996974e+03
8.669999999999999929e-01,1.703095376058452302e+03
8.709999999999999964e-01,1.696166288740172149e+03
8.750000000000000000e-01,1.690424750418425447e+03
8.790000000000000036e-01,1.685482611545459804e+03
8.830000000000000071e-01,1.684386270173717776e+03
8.870000000000000107e-01,1.683557705504373189e+03
8.910000000000000142e-01,1.681905745541173019e+03
8.950000000000000178e-01,1.680803677298082448e+03
8.980000000000000204e-01,1.680042462539119697e+03
9.020000000000000240e-01,1.676135077184125976e+03
9.060000000000000275e-01,1.670265470199911306e+03
9.100000000000000311e-01,1.668001655862024563e+03
9.140000000000000346e-01,1.664467532260723146e+03
9.180000000000000382e-01,1.658552325008778553e+03
9.220000000000000417e-01,1.653523237822074861e+03
9.260000000000000453e-01,1.647577083910558940e+03
9.300000000000000488e-01,1.641063792970981012e+03
9.340000000000000524e-01,1.637831971998371046e+03
9.379999999999999449e-01,1.637844256115864027e+03
9.409999999999999476e-01,1.639783443819612103e+03
9.449999999999999512e-01,1.641619947674958212e+03
9.489999999999999547e-01,1.641458914161662733e+03
9.529999999999999583e-01,1.637597960615266629e+03
9.569999999999999618e-01,1.628611696076225144e+03
9.609999999999999654e-01,1.620505803901160789e+03
9.649999999999999689e-01,1.614535423658380978e+03
9.689999999999999725e-01,1.610795416065514473e+03
9.729999999999999760e-01,1.605683666773254345e+03
9.769999999999999796e-01,1.602024463019977020e+03
9.799999999999999822e-01,1.596562980953195847e+03
9.839999999999999858e-01,1.588645670148770478e+03
9.879999999999999893e-01,1.578669985570606741e+03
9.919999999999999929e-01,1.567615765163113338e+03
9.959999999999999964e-01,1.558263735204040358e+03
1.000000000000000000e+00,1.550338082975897123e+03
1.004000000000000004e+00,1.544656009771567142e+03
1.008000000000000007e+00,1.539512652650295877e+03
1.012000000000000011e+00,1.533858034572681163e+03
1.016000000000000014e+00,1.528238806949547779e+03
1.020000000000000018e+00,1.521833062656752645e+03
1.022999999999999909e+00,1.520896924626864120e+03
1.026999999999999913e+00,1.526315644204368255e+03
1.030999999999999917e+00,1.535807069891168339e+03
1.034999999999999920e+00,1.541655612946264682e+03
1.038999999999999924e+00,1.542160602509549562e+03
1.042999999999999927e+00,1.534935925870185883e+03
1.046999999999999931e+00,1.521638903500520428e+03
1.050999999999999934e+00,1.505613046171659107e+03
1.054999999999999938e+00,1.489909988247409046e+03
1.058999999999999941e+00,1.480228437545728866e+03
1.062999999999999945e+00,1.473759491280376778e+03
1.066000000000000059e+00,1.470563218436567922e+03
1.070000000000000062e+00,1.470336395149746295e+03
1.074000000000000066e+00,1.467088937531140573e+03
1.078000000000000069e+00,1.457854915799950277e+03
1.082000000000000073e+00,1.443702278845532646e+03
1.086000000000000076e+00,1.427283795256105350e+03
1.090000000000000080e+00,1.411104446553707476e+03
1.094000000000000083e+00,1.398023042121930985e+03
1.098000000000000087e+00,1.387799437654338817e+03
1.102000000000000091e+00,1.381624908212033915e+03
1.104999999999999982e+00,1.377498727097974779e+03
1.108999999999999986e+00,1.373441515662883603e+03
1.112999999999999989e+00,1.368890323129703347e+03
1.116999999999999993e+00,1.361745279440924378e+03
1.120999999999999996e+00,1.353393067295154879e+03
1.125000000000000000e+00,1.344640995418075363e+03
1.129000000000000004e+00,1.331278173811922898e+03
1.133000000000000007e+00,1.313951685534902481e+03
1.137000000000000011e+00,1.294592243942554660e+03
1.141000000000000014e+00,1.274390280054192999e+03
1.145000000000000018e+00,1.254402860686017675e+03
1.147999999999999909e+00,1.239805202943018458e+03
1.151999999999999913e+00,1.228794033779739948e+03
1.155999999999999917e+00,1.223116654495152261e+03
1.159999999999999920e+00,1.220992159453352315e+03
1.163999999999999924e+00,1.218663439398230594e+03
1.167999999999999927e+00,1.220218415198369485e+03
1.171999999999999931e+00,1.224265907167209207e+03
1.175999999999999934e+00,1.227269492525856094e+03
1.179999999999999938e+00,1.230089836012996557e+03
1.183999999999999941e+00,1.233596230777660821e+03
1.187999999999999945e+00,1.237160941016851439e+03
1.191000000000000059e+00,1.241924132693033471e+03
1.195000000000000062e+00,1.248629936926480696e+03
1.199000000000000066e+00,1.260539745960751134e+03
1.203000000000000069e+00,1.273509700447477144e+03
1.207000000000000073e+00,1.285877670219654192e+03
1.211000000000000076e+00,1.294773701100612016e+03
1.215000000000000080e+00,1.299590715862341085e+03
1.219000000000000083e+00,1.303324977893388677e+03
1.223000000000000087e+00,1.308864785222727960e+03
1.227000000000000091e+00,1.316642854785947065e+03
1.229999999999999982e+00,1.323263754393774434e+03
1.233999999999999986e+00,1.328291536805874102e+03
1.237999999999999989e+00,1.330294075026068867e+03
1.241999999999999993e+00,1.327942749720171605e+03
1.245999999999999996e+00,1.325064447074590589e+03
1.250000000000000000e+00,1.325960000433592541e+03
1.254000000000000004e+00,1.327496914684888907e+03
1.258000000000000007e+00,1.328243762646847472e+03
1.262000000000000011e+00,1.331535805102678296e+03
1.266000000000000014e+00,1.334258563441764863e+03
1.270000000000000018e+00,1.336149518146541141e+03
1.272999999999999909e+00,1.337796948001706824e+03
1.276999999999999913e+00,1.337443016224934127e+03
1.280999999999999917e+00,1.333597886067565469e+03
1.284999999999999920e+00,1.326154749202288031e+03
1.288999999999999924e+00,1.318959775976831224e+03
1.292999999999999927e+00,1.309712626324069561e+03
1.296999999999999931e+00,1.297578140967956642e+03
1.300999999999999934e+00,1.285195281149937273e+03
1.304999999999999938e+00,1.274076274317709476e+03
1.308999999999999941e+00,1.262834709082288327e+03
1.312999999999999945e+00,1.253098673956362973e+03
1.316000000000000059e+00,1.242997644028635705e+03
1.320000000000000062e+00,1.234628362294944282e+03
1.324000000000000066e+00,1.230006604635727854e+03
1.328000000000000069e+00,1.230663455001439388e+03
1.332000000000000073e+00,1.239576016199005153e+03
1.336000000000000076e+00,1.252680046215881703e+03
1.340000000000000080e+00,1.268094952614638942e+03
1.344000000000000083e+00,1.282459399629311520e+03
1.348000000000000087e+00,1.291982046215544415e+03
1.352000000000000091e+00,1.298641557768158009e+03
1.354999999999999982e+00,1.305086603002524271e+03
1.358999999999999986e+00,1.312164121564356947e+03
1.362999999999999989e+00,1.320641366690495943e+03
1.366999999999999993e+00,1.325961483381564904e+03
1.370999999999999996e+00,1.328086631319863727e+03
1.375000000000000000e+00,1.326861398893556270e+03
1.379000000000000004e+00,1.324113782346311382e+03
1.383000000000000007e+00,1.323109770903986373e+03
1.387000000000000011e+00,1.322675907493304749e+03
1.391000000000000014e+00,1.322404326361557196e+03
1.395000000000000018e+00,1.322631655387395540e+03
1.397999999999999909e+00,1.322845674192785054e+03
1.401999999999999913e+00,1.322555567047984823e+03
1.405999999999999917e+00,1.323678095716207054e+03
1.409999999999999920e+00,1.325276612244977741e+03
1.413999999999999924e+00,1.324509146901178156e+03
1.417999999999999927e+00,1.322223633123306854e+03
1.421999999999999931e+00,1.322954715668463223e+03
1.425999999999999934e+00,1.326162298175734122e+03
1.429999999999999938e+00,1.329643368959787040e+03
1.433999999999999941e+00,1.330329898092087660e+03
1.437999999999999945e+00,1.332739348336859621e+03
1.441000000000000059e+00,1.336496519115598630e+03
1.445000000000000062e+00,1.338701294707021589e+03
1.449000000000000066e+00,1.336681500989551523e+03
1.453000000000000069e+00,1.332432877057371343e+03
1.457000000000000073e+00,1.320750957504394364e+03
1.461000000000000076e+00,1.307239358158342384e+03
1.465000000000000080e+00,1.293406451661676556e+03
1.469000000000000083e+00,1.278933323562866690e+03
1.473000000000000087e+00,1.266858663508927975e+03
1.477000000000000091e+00,1.260062740731789290e+03
1.479999999999999982e+00,1.258251876310745956e+03
1.483999999999999986e+00,1.257295830689878358e+03
1.487999999999999989e+00,1.256524836493186967e+03
1.491999999999999993e+00,1.256303520690160667e+03
1.495999999999999996e+00,1.250219339760521052e+03
1.500000000000000000e+00,1.240737156432332540e+03
1.504000000000000004e+00,1.233793846983887988e+03
1.508000000000000007e+00,1.229654775306507418e+03
1.512000000000000011e+00,1.229982195078760242e+03
1.516000000000000014e+00,1.233417060652037208e+03
1.520000000000000018e+00,1.235278582167663444e+03
1.522999999999999909e+00,1.233933711602065841e+03
1.526999999999999913e+00,1.230972301078406645e+03
1.530999999999999917e+00,1.228053355823822130e+03
1.534999999999999920e+00,1.226572969315744558e+03
1.538999999999999924e+00,1.228395201976785074e+03
1.542999999999999927e+00,1.230808075493748902e+03
1.546999999999999931e+00,1.230773274294321254e+03
1.550999999999999934e+00,1.230709198170334275e+03
1.554999999999999938e+00,1.228088260999925524e+03
1.558999999999999941e+00,1.223329807343660377e+03
1.562999999999999945e+00,1.218290803012587958e+03
1.566000000000000059e+00,1.214971285474845217e+03
1.570000000000000062e+00,1.214748790125036749e+03
1.574000000000000066e+00,1.217639447285943106e+03
1.578000000000000069e+00,1.224140370191070815e+03
1.582000000000000073e+00,1.230171818393675267e+03
1.586000000000000076e+00,1.237798887411594251e+03
1.590000000000000080e+00,1.245844337372710243e+03
1.594000000000000083e+00,1.253228455209177810e+03
1.598000000000000087e+00,1.261698727830325652e+03
1.602000000000000091e+00,1.274181584882381458e+03
1.604999999999999982e+00,1.283082898056535896e+03
1.608999999999999986e+00,1.291634314462574139e+03
1.612999999999999989e+00,1.299293050357247012e+03
1.616999999999999993e+00,1.301478174696952692e+03
1.620999999999999996e+00,1.304709511725219272e+03
1.625000000000000000e+00,1.310076413664343590e+03
1.629000000000000004e+00,1.319767370801536572e+03
1.633000000000000007e+00,1.331930590042127960e+03
1.637000000000000011e+00,1.342811192096040031e+03
1.641000000000000014e+00,1.354384415238561587e+03
1.645000000000000018e+00,1.366396374359918809e+03
1.647999999999999909e+00,1.376286140852812650e+03
1.651999999999999913e+00,1.388753988863808218e+03
1.655999999999999917e+00,1.403429084200797661e+03
1.659999999999999920e+00,1.416207758985075998e+03
1.663999999999999924e+00,1.428527777300407934e+03
1.667999999999999927e+00,1.440834859953086607e+03
1.671999999999999931e+00,1.451073497927178551e+03
1.675999999999999934e+00,1.454159792660569110e+03
1.679999999999999938e+00,1.454199148426315560e+03
1.683999999999999941e+00,1.455885135494100041e+03
1.687999999999999945e+00,1.457604304460591038e+03
1.691000000000000059e+00,1.462768733968151764e+03
1.695000000000000062e+00,1.472355785370320518e+03
1.699000000000000066e+00,1.485729673719627044e+03
1.703000000000000069e+00,1.500414560418090787e+03
1.707000000000000073e+00,1.512253500002074588e+03
1.711000000000000076e+00,1.518793839786136687e+03
1.715000000000000080e+00,1.520443610200233479e+03
1.719000000000000083e+00,1.518057222289581205e+03
1.723000000000000087e+00,1.514599643550968722e+03
1.727000000000000091e+00,1.514310737730334040e+03
1.729999999999999982e+00,1.516863580134353242e+03
1.733999999999999986e+00,1.519139563658998213e+03
1.737999999999999989e+00,1.519104378217942440e+03
1.741999999999999993e+00,1.515801206482044336e+03
1.745999999999999996e+00,1.514726469269663312e+03
1.750000000000000000e+00,1.519882035824462719e+03
1.754000000000000004e+00,1.523327869728241467e+03
1.758000000000000007e+00,1.524199702366496922e+03
1.762000000000000011e+00,1.525334646884240556e+03
1.766000000000000014e+00,1.523804000952861770e+03
1.770000000000000018e+00,1.519393349972668375e+03
1.772999999999999909e+00,1.512540212565708998e+03
1.776999999999999913e+00,1.504303647310498263e+03
1.780999999999999917e+00,1.494848736347028307e+03
1.784999999999999920e+00,1.483626458114482830e+03
1.788999999999999924e+00,1.470374193082453075e+03
1.792999999999999927e+00,1.457161424057700742e+03
1.796999999999999931e+00,1.446032951665882138e+03
1.800999999999999934e+00,1.435095581567113868e+03
1.804999999999999938e+00,1.426858693211162745e+03
1.808999999999999941e+00,1.422222115280296748e+03
1.812999999999999945e+00,1.422121639791580492e+03
1.816000000000000059e+00,1.429014065186981270e+03
1.820000000000000062e+00,1.441088622525208621e+03
1.824000000000000066e+00,1.452733477715597928e+03
1.828000000000000069e+00,1.458963682607916326e+03
1.832000000000000073e+00,1.460131472089288991e+03
1.836000000000000076e+00,1.460965863870353360e+03
1.840000000000000080e+00,1.465513800954022145e+03
1.844000000000000083e+00,1.471451358497426327e+03
1.848000000000000087e+00,1.476089406492365470e+03
1.852000000000000091e+00,1.482271262946145725e+03
1.854999999999999982e+00,1.491153859700508292e+03
1.858999999999999986e+00,1.499129899760896251e+03
1.862999999999999989e+00,1.502875928840443521e+03
1.866999999999999993e+00,1.507200891321634117e+03
1.870999999999999996e+00,1.513819927090558622e+03
1.875000000000000000e+00,1.521998780624147685e+03
1.879000000000000004e+00,1.530664481737880578e+03
1.883000000000000007e+00,1.539202782980826896e+03
1.887000000000000011e+00,1.550326465517116276e+03
1.891000000000000014e+00,1.558067646015643959e+03
1.895000000000000018e+00,1.561801678603055052e+03
1.897999999999999909e+00,1.565591023266928460e+03
1.901999999999999913e+00,1.571338003267890372e+03
1.905999999999999917e+00,1.576233633286344457e+03
1.909999999999999920e+00,1.580955065985975352e+03
1.913999999999999924e+00,1.585274398154532264e+03
1.917999999999999927e+00,1.588737259532140342e+03
1.921999999999999931e+00,1.591190881084888588e+03
1.925999999999999934e+00,1.590977240678012095e+03
1.929999999999999938e+00,1.590257986059838913e+03
1.933999999999999941e+00,1.593313642309972693e+03
1.937999999999999945e+00,1.596985799667994115e+03
1.941000000000000059e+00,1.592984992039560666e+03
1.945000000000000062e+00,1.587343672662085964e+03
1.949000000000000066e+00,1.583437080702354251e+03
1.953000000000000069e+00,1.578358325650718371e+03
1.957000000000000073e+00,1.572644523427936065e+03
1.961000000000000076e+00,1.568586699819506521e+03
1.965000000000000080e+00,1.568334082971658518e+03
1.969000000000000083e+00,1.572994809052642950e+03
1.973000000000000087e+00,1.576932419062143708e+03
1.977000000000000091e+00,1.577711936822794996e+03
1.979999999999999982e+00,1.575881030306494267e+03
1.983999999999999986e+00,1.575603807667939009e+03
1.987999999999999989e+00,1.574517594866572608e+03
1.991999999999999993e+00,1.566741852380564524e+03
1.995999999999999996e+00,1.552484676069793068e+03
2.000000000000000000e+00,1.535275766544139969e+03
2.004000000000000004e+00,1.520571560909411801e+03
2.008000000000000007e+00,1.512858113984618967e+03
2.012000000000000011e+00,1.510151558809393919e+03
2.016000000000000014e+00,1.507342540536736806e+03
2.020000000000000018e+00,1.504909743995912322e+03
2.023000000000000131e+00,1.504125487255983444e+03
2.027000000000000135e+00,1.501761876579770615e+03
2.031000000000000139e+00,1.495927286254250703e+03
2.035000000000000142e+00,1.486820791875017903e+03
2.039000000000000146e+00,1.476367632108258022e+03
2.043000000000000149e+00,1.471006877881997752e+03
2.047000000000000153e+00,1.467433088790254260e+03
2.051000000000000156e+00,1.460293606627888039e+03
2.055000000000000160e+00,1.449301852981642924e+03
2.059000000000000163e+00,1.440802259430141930e+03
2.063000000000000167e+00,1.433858679253461560e+03
2.065999999999999837e+00,1.425242965722140070e+03
2.069999999999999840e+00,1.418431278815886117e+03
2.073999999999999844e+00,1.413091240101134645e+03
2.077999999999999847e+00,1.408032980562098146e+03
2.081999999999999851e+00,1.402994452198971430e+03
2.085999999999999854e+00,1.396396575652981483e+03
2.089999999999999858e+00,1.391707091933336642e+03
2.093999999999999861e+00,1.388071033089347111e+03
2.097999999999999865e+00,1.385642393492431211e+03
2.101999999999999869e+00,1.386480501197821695e+03
2.104999999999999982e+00,1.390984358859990834e+03
2.108999999999999986e+00,1.399910119660109558e+03
2.112999999999999989e+00,1.411438209273539542e+03
2.116999999999999993e+00,1.421287659961906002e+03
2.120999999999999996e+00,1.426323348498472569e+03
2.125000000000000000e+00,1.431379692039691463e+03
2.129000000000000004e+00,1.437281418187034205e+03
2.133000000000000007e+00,1.438037738193224641e+03
2.137000000000000011e+00,1.438367378505479337e+03
2.141000000000000014e+00,1.443282362502375918e+03
2.145000000000000018e+00,1.454560352146457490e+03
2.148000000000000131e+00,1.465265967507903724e+03
2.152000000000000135e+00,1.472500746489981339e+03
2.156000000000000139e+00,1.476059906842475812e+03
2.160000000000000142e+00,1.477113524267209414e+03
2.164000000000000146e+00,1.475440915814401933e+03
2.168000000000000149e+00,1.471983838160421556e+03
2.172000000000000153e+00,1.471828359217621937e+03
2.176000000000000156e+00,1.471150152617984304e+03
2.180000000000000160e+00,1.469182611909492380e+03
2.184000000000000163e+00,1.468671645271337184e+03
2.188000000000000167e+00,1.470040373545611601e+03
2.190999999999999837e+00,1.476117520931271883e+03
2.194999999999999840e+00,1.489575427593944596e+03
2.198999999999999844e+00,1.512008670781774072e+03
2.202999999999999847e+00,1.541350563413086775e+03
2.206999999999999851e+00,1.571765669784825377e+03
2.210999999999999854e+00,1.597880150150859890e+03
2.214999999999999858e+00,1.619440601367526824e+03
2.218999999999999861e+00,1.638765206411874942e+03
2.222999999999999865e+00,1.658104594400311271e+03
2.226999999999999869e+00,1.676464790139782735e+03
2.229999999999999982e+00,1.691844443966840345e+03
2.233999999999999986e+00,1.704183370786435944e+03
2.237999999999999989e+00,1.710678626711278866e+03
2.241999999999999993e+00,1.710193973364911926e+03
2.245999999999999996e+00,1.699632704928177645e+03
2.250000000000000000e+00,1.676948392725817257e+03
2.254000000000000004e+00,1.647337057378515283e+03
2.258000000000000007e+00,1.618816066298426904e+03
2.262000000000000011e+00,1.593877049826406164e+03
2.266000000000000014e+00,1.572538382876876767e+03
2.270000000000000018e+00,1.557821849860973998e+03
2.273000000000000131e+00,1.550391552402481921e+03
2.277000000000000135e+00,1.546407582182265060e+03
2.281000000000000139e+00,1.539547693448024347e+03
2.285000000000000142e+00,1.527325089683086844e+03
2.289000000000000146e+00,1.513895693724032981e+03
2.293000000000000149e+00,1.502682015572059527e+03
2.297000000000000153e+00,1.499212700834575344e+03
2.301000000000000156e+00,1.505245889495250367e+03
2.305000000000000160e+00,1.513558269567455000e+03
2.309000000000000163e+00,1.517499943248832551e+03
2.313000000000000167e+00,1.516486947451370725e+03
2.315999999999999837e+00,1.509696057049779483e+03
2.319999999999999840e+00,1.503096378805935728e+03
2.323999999999999844e+00,1.500358680554372768e+03
2.327999999999999847e+00,1.502455860204379178e+03
2.331999999999999851e+00,1.505555138408184121e+03
2.335999999999999854e+00,1.503128111408736913e+03
2.339999999999999858e+00,1.494916486840353627e+03
2.343999999999999861e+00,1.482733936158431561e+03
2.347999999999999865e+00,1.469018136447308052e+03
2.351999999999999869e+00,1.455188001528889345e+03
2.354999999999999982e+00,1.438548979057160068e+03
2.358999999999999986e+00,1.422803377437593554e+03
2.362999999999999989e+00,1.407885181125318240e+03
2.366999999999999993e+00,1.392073072569426358e+03
2.370999999999999996e+00,1.376228265429469275e+03
2.375000000000000000e+00,1.360097384459624664e+03
2.379000000000000004e+00,1.345028891801119471e+03
2.383000000000000007e+00,1.330298623061921262e+03
2.387000000000000011e+00,1.316379235763790575e+03
2.391000000000000014e+00,1.306722663029225032e+03
2.395000000000000018e+00,1.301447603899097203e+03
2.398000000000000131e+00,1.302978067770844291e+03
2.402000000000000135e+00,1.317132267918042544e+03
2.406000000000000139e+00,1.346448670367875820e+03
2.410000000000000142e+00,1.391976160623313945e+03
2.414000000000000146e+00,1.449358072043321727e+03
2.418000000000000149e+00,1.509114911118399277e+03
2.422000000000000153e+00,1.563553615954753695e+03
2.426000000000000156e+00,1.606218303920101789e+03
2.430000000000000160e+00,1.633177402734355383e+03
2.434000000000000163e+00,1.647470848872412716e+03
2.438000000000000167e+00,1.655695350649021293e+03
2.440999999999999837e+00,1.658642112000530688e+03
2.444999999999999840e+00,1.656794317837342305e+03
2.448999999999999844e+00,1.646482165975995031e+03
2.452999999999999847e+00,1.627499794148996671e+03
2.456999999999999851e+00,1.603982056631356500e+03
2.460999999999999854e+00,1.578727934718666120e+03
2.464999999999999858e+00,1.553721969431974912e+03
2.468999999999999861e+00,1.529923748863032642e+03
2.472999999999999865e+00,1.509681888679717531e+03
2.476999999999999869e+00,1.494209454696691409e+03
2.479999999999999982e+00,1.481907800027344138e+03
2.483999999999999986e+00,1.465252862191913209e+03
2.487999999999999989e+00,1.443807886657052222e+03
2.491999999999999993e+00,1.422339392366886386e+03
2.495999999999999996e+00,1.396050863923582710e+03
2.500000000000000000e+00,1.363071665785512096e+03
2.504000000000000004e+00,1.320849683026707908e+03
2.508000000000000007e+00,1.266782311150330315e+03
2.512000000000000011e+00,1.192972075186796246e+03
2.516000000000000014e+00,1.109038133904370170e+03
2.520000000000000018e+00,1.029721108956681064e+03
2.523000000000000131e+00,9.607623807669012876e+02
2.527000000000000135e+00,9.028303061472987565e+02
2.531000000000000139e+00,8.569155553481851939e+02
2.535000000000000142e+00,8.191933051733517459e+02
2.539000000000000146e+00,7.880087415831208091e+02
2.543000000000000149e+00,7.645495445047346266e+02
2.547000000000000153e+00,7.540345230021733869e+02
2.551000000000000156e+00,7.564525700831761696e+02
2.555000000000000160e+00,7.653148216286821253e+02
2.559000000000000163e+00,7.759887943698055324e+02
2.563000000000000167e+00,7.829386004988685954e+02
2.565999999999999837e+00,7.877765193427953818e+02
2.569999999999999840e+00,7.904602416973801837e+02
2.573999999999999844e+00,7.927500362762658597e+02
2.577999999999999847e+00,7.929544713272651961e+02
2.581999999999999851e+00,7.866352107676959804e+02
2.585999999999999854e+00,7.762861387665955135e+02
2.589999999999999858e+00,7.636524369754520194e+02
2.593999999999999861e+00,7.505356512144790031e+02
2.597999999999999865e+00,7.421922607954746809e+02
2.601999999999999869e+00,7.423709982649243102e+02
2.604999999999999982e+00,7.492708182831672730e+02
2.608999999999999986e+00,7.666725062638456620e+02
2.612999999999999989e+00,8.034696064880831727e+02
2.616999999999999993e+00,8.666703178110669796e+02
2.620999999999999996e+00,9.436106583885800774e+02
2.625000000000000000e+00,1.013961274483179295e+03
2.629000000000000004e+00,1.069300791041963294e+03
2.633000000000000007e+00,1.113136378469044985e+03
2.637000000000000011e+00,1.149052431576928939e+03
2.641000000000000014e+00,1.174193294407088842e+03
2.645000000000000018e+00,1.190839664377724603e+03
2.648000000000000131e+00,1.203679062967344862e+03
2.652000000000000135e+00,1.211426068560293970e+03
2.656000000000000139e+00,1.213893482314839275e+03
2.660000000000000142e+00,1.215805920083804040e+03
2.664000000000000146e+00,1.220329646166543398e+03
2.668000000000000149e+00,1.226317678857861210e+03
2.672000000000000153e+00,1.231612911142731036e+03
2.676000000000000156e+00,1.244296169754807352e+03
2.680000000000000160e+00,1.267468035463700744e+03
2.684000000000000163e+00,1.296943359778582817e+03
2.688000000000000167e+00,1.329224098167509965e+03
2.690999999999999837e+00,1.358005922733421812e+03
2.694999999999999840e+00,1.379580393493214387e+03
2.698999999999999844e+00,1.391497384559221473e+03
2.702999999999999847e+00,1.401942653689243571e+03
2.706999999999999851e+00,1.420655042000181766e+03
2.710999999999999854e+00,1.445138000444211912e+03
2.714999999999999858e+00,1.470300151890342477e+03
2.718999999999999861e+00,1.494481011109239944e+03
2.722999999999999865e+00,1.522023320352919200e+03
2.726999999999999869e+00,1.548952192166760824e+03
2.729999999999999982e+00,1.571596827342982351e+03
2.733999999999999986e+00,1.594845595963390679e+03
2.737999999999999989e+00,1.618524343043720364e+03
2.741999999999999993e+00,1.641347691699185361e+03
2.745999999999999996e+00,1.663022691605768614e+03
2.750000000000000000e+00,1.683590422594708116e+03
2.754000000000000004e+00,1.701963402419846261e+03
2.758000000000000007e+00,1.715103294559192136e+03
2.762000000000000011e+00,1.717606678112344753e+03
2.766000000000000014e+00,1.705063705543061587e+03
2.770000000000000018e+00,1.679011733827904209e+03
2.773000000000000131e+00,1.639871886572172571e+03
2.777000000000000135e+00,1.590839239704208694e+03
2.781000000000000139e+00,1.539669553372375731e+03
2.785000000000000142e+00,1.489823516182160802e+03
2.789000000000000146e+00,1.447189959746931891e+03
2.793000000000000149e+00,1.420669161752516402e+03
2.797000000000000153e+00,1.416014145878294812e+03
2.801000000000000156e+00,1.428220289118778510e+03
2.805000000000000160e+00,1.445868029359406364e+03
2.809000000000000163e+00,1.459897474481987274e+03
2.813000000000000167e+00,1.473102912680699546e+03
2.815999999999999837e+00,1.494341065068244689e+03
2.819999999999999840e+00,1.520690989118007110e+03
2.823999999999999844e+00,1.541976707090992022e+03
2.827999999999999847e+00,1.554296930848758620e+03
2.831999999999999851e+00,1.565616876300564627e+03
2.835999999999999854e+00,1.571220803863353922e+03
2.839999999999999858e+00,1.571811182430509689e+03
2.843999999999999861e+00,1.569367492704166352e+03
2.847999999999999865e+00,1.567164169857153638e+03
2.851999999999999869e+00,1.566249017424932390e+03
2.854999999999999982e+00,1.560860362463516140e+03
2.858999999999999986e+00,1.551701029218343592e+03
2.862999999999999989e+00,1.543716471679826782e+03
2.866999999999999993e+00,1.532348084933494647e+03
2.870999999999999996e+00,1.513643194369158891e+03
2.875000000000000000e+00,1.493105920956125146e+03
2.879000000000000004e+00,1.478393826659211527e+03
2.883000000000000007e+00,1.466117153335298099e+03
2.887000000000000011e+00,1.452743463234010960e+03
2.891000000000000014e+00,1.440448246734407121e+03
2.895000000000000018e+00,1.429868783713106723e+03
2.898000000000000131e+00,1.415710446584740794e+03
2.902000000000000135e+00,1.391926589788969977e+03
2.906000000000000139e+00,1.364204360664906517e+03
2.910000000000000142e+00,1.344619414107328566e+03
2.914000000000000146e+00,1.333490234858688609e+03
2.918000000000000149e+00,1.321805171596162381e+03
2.922000000000000153e+00,1.306349991844195529e+03
2.926000000000000156e+00,1.289858030537836157e+03
2.930000000000000160e+00,1.271626022472123168e+03
2.934000000000000163e+00,1.246370065237170593e+03
2.938000000000000167e+00,1.219828923282531605e+03
2.940999999999999837e+00,1.202054872148936283e+03
2.944999999999999840e+00,1.194684404145516737e+03
2.948999999999999844e+00,1.185946653116768630e+03
2.952999999999999847e+00,1.172706766442587877e+03
2.956999999999999851e+00,1.161669233240421136e+03
2.960999999999999854e+00,1.155974560018040847e+03
2.964999999999999858e+00,1.150204680064744707e+03
2.968999999999999861e+00,1.138769171618887412e+03
2.972999999999999865e+00,1.124246320519943083e+03
2.976999999999999869e+00,1.121679954579676632e+03
2.979999999999999982e+00,1.138250272550541695e+03
2.983999999999999986e+00,1.169057351225837920e+03
2.987999999999999989e+00,1.205196288861298171e+03
2.991999999999999993e+00,1.237657541240840828e+03
2.995999999999999996e+00,1.263503007653510167e+03
3.000000000000000000e+00,1.287953777353266332e+03
3.004000000000000004e+00,1.322298268831288624e+03
3.008000000000000007e+00,1.366177797611356254e+03
3.012000000000000011e+00,1.412502898792782844e+03
3.016000000000000014e+00,1.461696717854651297e+03
3.020000000000000018e+00,1.511962450510689905e+03
3.023000000000000131e+00,1.541998031269247576e+03
3.027000000000000135e+00,1.537966357209545095e+03
3.031000000000000139e+00,1.513152231062041892e+03
3.035000000000000142e+00,1.495746029431212946e+03
3.039000000000000146e+00,1.491519899253236417e+03
3.043000000000000149e+00,1.496917180105284615e+03
3.047000000000000153e+00,1.513484906040426040e+03
3.051000000000000156e+00,1.543785297148689551e+03
3.055000000000000160e+00,1.583284710991194743e+03
3.059000000000000163e+00,1.622846593897636922e+03
3.063000000000000167e+00,1.662628264503204264e+03
3.065999999999999837e+00,1.699391520350065548e+03
3.069999999999999840e+00,1.724330006863031940e+03
3.073999999999999844e+00,1.740021765902087736e+03
3.077999999999999847e+00,1.752106511091253424e+03
3.081999999999999851e+00,1.764447344812272604e+03
3.085999999999999854e+00,1.778731268633036734e+03
3.089999999999999858e+00,1.797841426559135016e+03
3.093999999999999861e+00,1.833722300607157877e+03
3.097999999999999865e+00,1.887278133611220937e+03
3.101999999999999869e+00,1.952322942585185274e+03
3.104999999999999982e+00,2.015407486178640966e+03
3.108999999999999986e+00,2.071014811702177667e+03
3.112999999999999989e+00,2.122977870525991420e+03
3.116999999999999993e+00,2.172830226901826791e+03
3.120999999999999996e+00,2.217551326487678125e+03
3.125000000000000000e+00,2.250620233955388812e+03
3.129000000000000004e+00,2.263988587549745716e+03
3.133000000000000007e+00,2.243207940626867185e+03
3.137000000000000011e+00,2.173254349273535354e+03
3.141000000000000014e+00,2.065515001347442649e+03
3.145000000000000018e+00,1.937724487356844747e+03
3.148000000000000131e+00,1.784034032841640283e+03
3.152000000000000135e+00,1.597567536211335664e+03
3.156000000000000139e+00,1.410285347978877326e+03
3.160000000000000142e+00,1.259735827650472629e+03
3.164000000000000146e+00,1.154284359035099214e+03
3.168000000000000149e+00,1.085285229484978345e+03
3.172000000000000153e+00,1.041034644262440224e+03
3.176000000000000156e+00,1.011087538360157851e+03
3.180000000000000160e+00,9.777919992436691246e+02
3.184000000000000163e+00,9.384551893358259349e+02
3.188000000000000167e+00,9.183311664262516842e+02
3.190999999999999837e+00,9.375858920174729292e+02
3.194999999999999840e+00,9.800505128723644930e+02
3.198999999999999844e+00,1.020547473824055146e+03
3.202999999999999847e+00,1.047570120743696179e+03
3.206999999999999851e+00,1.060000588367912997e+03
3.210999999999999854e+00,1.060648794664934258e+03
3.214999999999999858e+00,1.047091570910926748e+03
3.218999999999999861e+00,1.025674118783039603e+03
3.222999999999999865e+00,1.017490036117559953e+03
3.226999999999999869e+00,1.039899867458630979e+03
3.229999999999999982e+00,1.085121397037979477e+03
3.233999999999999986e+00,1.130517614347418203e+03
3.237999999999999989e+00,1.179206617009474257e+03
3.241999999999999993e+00,1.218913958222360634e+03
3.245999999999999996e+00,1.237335066799851347e+03
3.250000000000000000e+00,1.260045875625840381e+03
3.254000000000000004e+00,1.296600258354699918e+03
3.258000000000000007e+00,1.296614116676057847e+03
3.262000000000000011e+00,1.216837482205872902e+03
3.266000000000000014e+00,1.093201789270698782e+03
3.270000000000000018e+00,1.011697091418243986e+03
3.273000000000000131e+00,1.004506632498425006e+03
3.277000000000000135e+00,1.026187532828834492e+03
3.281000000000000139e+00,1.056317583340093506e+03
3.285000000000000142e+00,1.120918404952851233e+03
3.289000000000000146e+00,1.198490574930088997e+03
3.293000000000000149e+00,1.235953575295634892e+03
3.297000000000000153e+00,1.235305339109469742e+03
3.301000000000000156e+00,1.200794727317876777e+03
3.305000000000000160e+00,1.126766926583188479e+03
3.309000000000000163e+00,1.044535554567668214e+03
3.313000000000000167e+00,1.005059118017272908e+03
3.315999999999999837e+00,1.006154873831169539e+03
3.319999999999999840e+00,9.969213926012326965e+02
3.323999999999999844e+00,9.446833989650605190e+02
3.327999999999999847e+00,8.860640616011993416e+02
3.331999999999999851e+00,8.695332601298441659e+02
3.335999999999999854e+00,8.948693122694340900e+02
3.339999999999999858e+00,9.383645124397046402e+02
3.343999999999999861e+00,9.918047647949694010e+02
3.347999999999999865e+00,1.080241631055688686e+03
3.351999999999999869e+00,1.199999381916635684e+03
3.354999999999999982e+00,1.290102042924837406e+03
3.358999999999999986e+00,1.303160671367552823e+03
3.362999999999999989e+00,1.265468338749637951e+03
3.366999999999999993e+00,1.228037623802277494e+03
3.370999999999999996e+00,1.199407420875963453e+03
3.375000000000000000e+00,1.179025132237638445e+03
3.379000000000000004e+00,1.215881658183999434e+03
3.383000000000000007e+00,1.319391004915861458e+03
3.387000000000000011e+00,1.392842686808298367e+03
3.391000000000000014e+00,1.366084895893792009e+03
3.395000000000000018e+00,1.279498422435811563e+03
3.398000000000000131e+00,1.187003076436189531e+03
3.402000000000000135e+00,1.108397033515980866e+03
3.406000000000000139e+00,1.068145424310875796e+03
3.410000000000000142e+00,1.096116538826181340e+03
3.414000000000000146e+00,1.191739554550053072e+03
3.418000000000000149e+00,1.299779824237371713e+03
3.422000000000000153e+00,1.356105951475072743e+03
3.426000000000000156e+00,1.350417120916061094e+03
3.430000000000000160e+00,1.312103962131207027e+03
3.434000000000000163e+00,1.275356109405706547e+03
3.438000000000000167e+00,1.260191939430847242e+03
3.440999999999999837e+00,1.274129740683263663e+03
3.444999999999999840e+00,1.307448768574381802e+03
3.448999999999999844e+00,1.322061918807223947e+03
3.452999999999999847e+00,1.285986347783604515e+03
3.456999999999999851e+00,1.207079186821243638e+03
3.460999999999999854e+00,1.123058110159445278e+03
3.464999999999999858e+00,1.061934300763073907e+03
3.468999999999999861e+00,1.037487136709497918e+03
3.472999999999999865e+00,1.065540664649500059e+03
3.476999999999999869e+00,1.135786579085091944e+03
3.479999999999999982e+00,1.187882908232604450e+03
3.483999999999999986e+00,1.187573555497062898e+03
3.487999999999999989e+00,1.169425986347465368e+03
3.491999999999999993e+00,1.153696114422161600e+03
3.495999999999999996e+00,1.136702512607981816e+03
3.500000000000000000e+00,1.131869044506439650e+03
3.504000000000000004e+00,1.167733283003753513e+03
3.508000000000000007e+00,1.234509184893786824e+03
3.512000000000000011e+00,1.282780151120892015e+03
3.516000000000000014e+00,1.289917117154545394e+03
3.520000000000000018e+00,1.272085310860118852e+03
3.523000000000000131e+00,1.250010383611785528e+03
3.527000000000000135e+00,1.225157660637472191e+03
3.531000000000000139e+00,1.192746698955791771e+03
3.535000000000000142e+00,1.161882570975550607e+03
3.539000000000000146e+00,1.142529173768923783e+03
3.543000000000000149e+00,1.126381556154338796e+03
3.547000000000000153e+00,1.107186263392390401e+03
3.551000000000000156e+00,1.096830592578256528e+03
3.555000000000000160e+00,1.110093632174587583e+03
3.559000000000000163e+00,1.146472929745975989e+03
3.563000000000000167e+00,1.195666847443666938e+03
3.565999999999999837e+00,1.247319604750498911e+03
3.569999999999999840e+00,1.293418683505937452e+03
3.573999999999999844e+00,1.315099133473502434e+03
3.577999999999999847e+00,1.307583477275364203e+03
3.581999999999999851e+00,1.287714102595956774e+03
3.585999999999999854e+00,1.266000763007163187e+03
3.589999999999999858e+00,1.252690283933205819e+03
3.593999999999999861e+00,1.249514408147621452e+03
3.597999999999999865e+00,1.266108978979738367e+03
3.601999999999999869e+00,1.296416842922218166e+03
3.604999999999999982e+00,1.326011217236883340e+03
3.608999999999999986e+00,1.347613223484506761e+03
3.612999999999999989e+00,1.366416557793319953e+03
3.616999999999999993e+00,1.388639364330577337e+03
3.620999999999999996e+00,1.412320081071500226e+03
3.625000000000000000e+00,1.433006439609491508e+03
3.629000000000000004e+00,1.450147256498397155e+03
3.633000000000000007e+00,1.464617393926381055e+03
3.637000000000000011e+00,1.472071381363399496e+03
3.641000000000000014e+00,1.475569902630558772e+03
3.645000000000000018e+00,1.484346726873453918e+03
3.648000000000000131e+00,1.500614920603489963e+03
3.652000000000000135e+00,1.511175167776356602e+03
3.656000000000000139e+00,1.510770008490856299e+03
3.660000000000000142e+00,1.502362388238974518e+03
3.664000000000000146e+00,1.490279244975440633e+03
3.668000000000000149e+00,1.468764574783564285e+03
3.672000000000000153e+00,1.442243269874372118e+03
3.676000000000000156e+00,1.425104358237739689e+03
3.680000000000000160e+00,1.418654889120517055e+03
3.684000000000000163e+00,1.412284439226501945e+03
3.688000000000000167e+00,1.398805023192442377e+03
3.690999999999999837e+00,1.382091314164755431e+03
3.694999999999999840e+00,1.359389400778283743e+03
3.698999999999999844e+00,1.331378537622107388e+03
3.702999999999999847e+00,1.301860855358316712e+03
3.706999999999999851e+00,1.284403728886344652e+03
3.710999999999999854e+00,1.275901299544056883e+03
3.714999999999999858e+00,1.274544112636525824e+03
3.718999999999999861e+00,1.278632085921614134e+03
3.722999999999999865e+00,1.294257963010149297e+03
3.726999999999999869e+00,1.317659032690469758e+03
3.729999999999999982e+00,1.346623542890335330e+03
3.733999999999999986e+00,1.378640955217210376e+03
3.737999999999999989e+00,1.403952722843911260e+03
3.741999999999999993e+00,1.414834358808531306e+03
3.745999999999999996e+00,1.404178430992799804e+03
3.750000000000000000e+00,1.387592420406821248e+03
3.754000000000000004e+00,1.379056957200019042e+03
3.758000000000000007e+00,1.384071520034900459e+03
3.762000000000000011e+00,1.389672770364762300e+03
3.766000000000000014e+00,1.395693379012451942e+03
3.770000000000000018e+00,1.400854193644183169e+03
3.773000000000000131e+00,1.400341221911200819e+03
3.777000000000000135e+00,1.393476358678751012e+03
3.781000000000000139e+00,1.389879475577268749e+03
3.785000000000000142e+00,1.396037004550051734e+03
3.789000000000000146e+00,1.407889669241491447e+03
3.793000000000000149e+00,1.418977007383635282e+03
3.797000000000000153e+00,1.429637406719088403e+03
3.801000000000000156e+00,1.439139489484403612e+03
3.805000000000000160e+00,1.445060930216354336e+03
3.809000000000000163e+00,1.442271278746909275e+03
3.813000000000000167e+00,1.435027691388886524e+03
3.815999999999999837e+00,1.427597052428052848e+03
3.819999999999999840e+00,1.422555873620174225e+03
3.823999999999999844e+00,1.422428091069692982e+03
3.827999999999999847e+00,1.431716749976852725e+03
3.831999999999999851e+00,1.446966447948798987e+03
3.835999999999999854e+00,1.461634860012877198e+03
3.839999999999999858e+00,1.471777517331471245e+03
3.843999999999999861e+00,1.485903356707367948e+03
3.847999999999999865e+00,1.497320817287768477e+03
3.851999999999999869e+00,1.505739572684782161e+03
3.854999999999999982e+00,1.507694027323662340e+03
3.858999999999999986e+00,1.511991765599854261e+03
3.862999999999999989e+00,1.510102157408265157e+03
3.866999999999999993e+00,1.510305328600514486e+03
3.870999999999999996e+00,1.502686120468016043e+03
3.875000000000000000e+00,1.494074394369192305e+03
3.879000000000000004e+00,1.477150276533805709e+03
3.883000000000000007e+00,1.454297769601699201e+03
3.887000000000000011e+00,1.430763143388595154e+03
3.891000000000000014e+00,1.412027923368176062e+03
3.895000000000000018e+00,1.405388353982739773e+03
3.898000000000000131e+00,1.407068122927289551e+03
3.902000000000000135e+00,1.418595009451103806e+03
3.906000000000000139e+00,1.425856346137822129e+03
3.910000000000000142e+00,1.432404749962176311e+03
3.914000000000000146e+00,1.435682034012247641e+03
3.918000000000000149e+00,1.438490496829502263e+03
3.922000000000000153e+00,1.431000456812037100e+03
3.926000000000000156e+00,1.423849004730550860e+03
3.930000000000000160e+00,1.421676285288154304e+03
3.934000000000000163e+00,1.430443746845788155e+03
3.938000000000000167e+00,1.439010421861887835e+03
3.940999999999999837e+00,1.442713720968034067e+03
3.944999999999999840e+00,1.443946326992157537e+03
3.948999999999999844e+00,1.452793914841431388e+03
3.952999999999999847e+00,1.465921176238131693e+03
3.956999999999999851e+00,1.482273268141609151e+03
3.960999999999999854e+00,1.497893758117573270e+03
3.964999999999999858e+00,1.510639074649986469e+03
3.968999999999999861e+00,1.504347493066097513e+03
3.972999999999999865e+00,1.488125759566320994e+03
3.976999999999999869e+00,1.467623772416686961e+03
3.979999999999999982e+00,1.449335661153468664e+03
3.983999999999999986e+00,1.438956893698966041e+03
3.987999999999999989e+00,1.440712717940368066e+03
3.991999999999999993e+00,1.449890721781064485e+03
3.995999999999999996e+00,1.463192309658692693e+03
4.000000000000000000e+00,1.464326727216946892e+03
4.003999999999999559e+00,1.455161498622569297e+03
4.008000000000000007e+00,1.439274649429239844e+03
4.011999999999999567e+00,1.426583025435999389e+03
4.016000000000000014e+00,1.420303950666732817e+03
4.019999999999999574e+00,1.423394278063131651e+03
4.022999999999999687e+00,1.427084306985754438e+03
4.027000000000000135e+00,1.422200328439688064e+03
4.030999999999999694e+00,1.408979058148428976e+03
4.035000000000000142e+00,1.390099017582793522e+03
4.038999999999999702e+00,1.373403369328736972e+03
4.043000000000000149e+00,1.353928359489781315e+03
4.046999999999999709e+00,1.335503829145930695e+03
4.051000000000000156e+00,1.319207431141975121e+03
4.054999999999999716e+00,1.304812709445463952e+03
4.059000000000000163e+00,1.285287150784537971e+03
4.062999999999999723e+00,1.262436563518427647e+03
4.065999999999999837e+00,1.240930925492907136e+03
4.070000000000000284e+00,1.227387021505423036e+03
4.073999999999999844e+00,1.218025791811514637e+03
4.078000000000000291e+00,1.211419217149196356e+03
4.081999999999999851e+00,1.201254512939457300e+03
4.086000000000000298e+00,1.183760510899170185e+03
4.089999999999999858e+00,1.166945920187144566e+03
4.094000000000000306e+00,1.154102776331171981e+03
4.097999999999999865e+00,1.152029574622317568e+03
4.102000000000000313e+00,1.159594282226789346e+03
4.105000000000000426e+00,1.172330488267825558e+03
4.108999999999999986e+00,1.181177978465639399e+03
4.113000000000000433e+00,1.180272772473437044e+03
4.116999999999999993e+00,1.169875520658781852e+03
4.121000000000000441e+00,1.153528535995002358e+03
4.125000000000000000e+00,1.136185383244738659e+03
4.128999999999999559e+00,1.128630498611198618e+03
4.133000000000000007e+00,1.134896483484597411e+03
4.136999999999999567e+00,1.150732119146658533e+03
4.141000000000000014e+00,1.168628891636793696e+03
4.144999999999999574e+00,1.185607765572143762e+03
4.147999999999999687e+00,1.202960351831568005e+03
4.152000000000000135e+00,1.223396898387112287e+03
4.155999999999999694e+00,1.249682281049015955e+03
4.160000000000000142e+00,1.280594291594683682e+03
4.163999999999999702e+00,1.314046191577727086e+03
4.168000000000000149e+00,1.341087294468510663e+03
4.171999999999999709e+00,1.357566261984087078e+03
4.176000000000000156e+00,1.366295472677902808e+03
4.179999999999999716e+00,1.373563815294546885e+03
4.184000000000000163e+00,1.385022448179980074e+03
4.187999999999999723e+00,1.404668932112434732e+03
4.190999999999999837e+00,1.429682659999673206e+03
4.195000000000000284e+00,1.456350177457867630e+03
4.198999999999999844e+00,1.481841550718057988e+03
4.203000000000000291e+00,1.501359013174946540e+03
4.206999999999999851e+00,1.509139123333222642e+03
4.211000000000000298e+00,1.510824701354098124e+03
4.214999999999999858e+00,1.513083850665158479e+03
4.219000000000000306e+00,1.523352145233069223e+03
4.222999999999999865e+00,1.541183790664566459e+03
4.227000000000000313e+00,1.561166564497310674e+03
4.230000000000000426e+00,1.577922400421129169e+03
4.233999999999999986e+00,1.580106145715120419e+03
4.238000000000000433e+00,1.565098925150291734e+03
4.241999999999999993e+00,1.537998211526502246e+03
4.246000000000000441e+00,1.505526075964288793e+03
4.250000000000000000e+00,1.476148686639375683e+03
4.253999999999999559e+00,1.455595146882892550e+03
4.258000000000000007e+00,1.443386311554372014e+03
4.261999999999999567e+00,1.438637223996501916e+03
4.266000000000000014e+00,1.442278511733850110e+03
4.269999999999999574e+00,1.454146932219405699e+03
4.272999999999999687e+00,1.469186083746658596e+03
4.277000000000000135e+00,1.487028231692625468e+03
4.280999999999999694e+00,1.515640944589388937e+03
4.285000000000000142e+00,1.548215458219699030e+03
4.288999999999999702e+00,1.564528184429649400e+03
4.293000000000000149e+00,1.556833128010674045e+03
4.296999999999999709e+00,1.532601408762637902e+03
4.301000000000000156e+00,1.501384968289053177e+03
4.304999999999999716e+00,1.470222655314100621e+03
4.309000000000000163e+00,1.451140108321975958e+03
4.312999999999999723e+00,1.455960021942431695e+03
4.315999999999999837e+00,1.484138946675654324e+03
4.320000000000000284e+00,1.525057096863290099e+03
4.323999999999999844e+00,1.565258830926191877e+03
4.328000000000000291e+00,1.591406861352070791e+03
4.331999999999999851e+00,1.600856737593294156e+03
4.336000000000000298e+00,1.596160875174544117e+03
4.339999999999999858e+00,1.579492192988850320e+03
4.344000000000000306e+00,1.553839746587078935e+03
4.347999999999999865e+00,1.519409456187898968e+03
4.352000000000000313e+00,1.485107648278686838e+03
4.355000000000000426e+00,1.459823451704661693e+03
4.358999999999999986e+00,1.444311062569641535e+03
4.363000000000000433e+00,1.436821841358486154e+03
4.366999999999999993e+00,1.437016475116595984e+03
4.371000000000000441e+00,1.449346197065401839e+03
4.375000000000000000e+00,1.470459767696854669e+03
4.378999999999999559e+00,1.490549590948184232e+03
4.383000000000000007e+00,1.498978592655185139e+03
4.386999999999999567e+00,1.493411644411700308e+03
4.391000000000000014e+00,1.480101244929000131e+03
4.394999999999999574e+00,1.466649962332939594e+03
4.397999999999999687e+00,1.459608941214462675e+03
4.402000000000000135e+00,1.467875438439591562e+03
4.405999999999999694e+00,1.494258106551425726e+03
4.410000000000000142e+00,1.526699388338936160e+03
4.413999999999999702e+00,1.548543528387275728e+03
4.418000000000000149e+00,1.554933051359350884e+03
4.421999999999999709e+00,1.549044008282982531e+03
4.426000000000000156e+00,1.526900136791411342e+03
4.429999999999999716e+00,1.494669274793339127e+03
4.434000000000000163e+00,1.462703302452164962e+03
4.437999999999999723e+00,1.433869981660747271e+03
4.440999999999999837e+00,1.409874007615832852e+03
4.445000000000000284e+00,1.399373916337023502e+03
4.448999999999999844e+00,1.414662888545507712e+03
4.453000000000000291e+00,1.453030923966806313e+03
4.456999999999999851e+00,1.496414397714353072e+03
4.461000000000000298e+00,1.503304774126294888e+03
4.464999999999999858e+00,1.491985089259711685e+03
4.469000000000000306e+00,1.517559212296383066e+03
4.472999999999999865e+00,1.568420079287174985e+03
4.477000000000000313e+00,1.616737545655336135e+03
4.480000000000000426e+00,1.637443833823381055e+03
4.483999999999999986e+00,1.623776485258566481e+03
4.488000000000000433e+00,1.578063113774252770e+03
4.491999999999999993e+00,1.515329609579492171e+03
4.496000000000000441e+00,1.447916588228064484e+03
4.500000000000000000e+00,1.387988823265999372e+03
4.503999999999999559e+00,1.352660879975090666e+03
4.508000000000000007e+00,1.338098822084879657e+03
4.511999999999999567e+00,1.349913661590960828e+03
4.516000000000000014e+00,1.403751840525177158e+03
4.519999999999999574e+00,1.472121269861261226e+03
4.522999999999999687e+00,1.512603546245092502e+03
4.527000000000000135e+00,1.508326145029354166e+03
4.530999999999999694e+00,1.476941616838302707e+03
4.535000000000000142e+00,1.443515674853234486e+03
4.538999999999999702e+00,1.428596395694266448e+03
4.543000000000000149e+00,1.448359261178575252e+03
4.546999999999999709e+00,1.473379138723373899e+03
4.551000000000000156e+00,1.471540335999294712e+03
4.554999999999999716e+00,1.449172493624300159e+03
4.559000000000000163e+00,1.424667159968841361e+03
4.562999999999999723e+00,1.419065835085633353e+03
4.565999999999999837e+00,1.440009193178102123e+03
4.570000000000000284e+00,1.474920883883258966e+03
4.573999999999999844e+00,1.493714982169946779e+03
4.578000000000000291e+00,1.496130133934220339e+03
4.581999999999999851e+00,1.497990076186238412e+03
4.586000000000000298e+00,1.495724820966212519e+03
4.589999999999999858e+00,1.489283601394137577e+03
4.594000000000000306e+00,1.497321683999748984e+03
4.597999999999999865e+00,1.542454638930631518e+03
4.602000000000000313e+00,1.652185643241510206e+03
4.605000000000000426e+00,1.823842824733585303e+03
4.608999999999999986e+00,1.992890559480258617e+03
4.613000000000000433e+00,2.108784948218648424e+03
4.616999999999999993e+00,2.154891216327846905e+03
4.621000000000000441e+00,2.142838124690694258e+03
4.625000000000000000e+00,2.103804438308901808e+03
4.628999999999999559e+00,2.052703904975242949e+03
4.633000000000000007e+00,1.987215916578283213e+03
4.636999999999999567e+00,1.923130152496637493e+03
4.641000000000000014e+00,1.877600947729755489e+03
4.644999999999999574e+00,1.852495840398546761e+03
4.647999999999999687e+00,1.836687604978082391e+03
4.652000000000000135e+00,1.828561642226012054e+03
4.655999999999999694e+00,1.832658391249380202e+03
4.660000000000000142e+00,1.851600056919278131e+03
4.663999999999999702e+00,1.879274646243878351e+03
4.668000000000000149e+00,1.900988663701866699e+03
4.671999999999999709e+00,1.908830909057182680e+03
4.676000000000000156e+00,1.904088199610906258e+03
4.679999999999999716e+00,1.881223690082314533e+03
4.684000000000000163e+00,1.837323080516554000e+03
4.687999999999999723e+00,1.783463698962018725e+03
4.690999999999999837e+00,1.740629209371920297e+03
4.695000000000000284e+00,1.725241880371617754e+03
4.698999999999999844e+00,1.731690894462287815e+03
4.703000000000000291e+00,1.745001546870777474e+03
4.706999999999999851e+00,1.761385054700003366e+03
4.711000000000000298e+00,1.786149778770689181e+03
4.714999999999999858e+00,1.816116125159296871e+03
4.719000000000000306e+00,1.833190917760712637e+03
4.722999999999999865e+00,1.825909887473314711e+03
4.727000000000000313e+00,1.800258397116225979e+03
4.730000000000000426e+00,1.763994207264995339e+03
4.733999999999999986e+00,1.719903966993846780e+03
4.738000000000000433e+00,1.659386661975095421e+03
4.741999999999999993e+00,1.578805748642910203e+03
4.746000000000000441e+00,1.492102407312674131e+03
4.750000000000000000e+00,1.413999506201133727e+03
4.753999999999999559e+00,1.346494263709132611e+03
4.758000000000000007e+00,1.285018812535919096e+03
4.761999999999999567e+00,1.226719938824903238e+03
4.766000000000000014e+00,1.178368481807001899e+03
4.769999999999999574e+00,1.151303211624489450e+03
4.772999999999999687e+00,1.158485249700468785e+03
4.777000000000000135e+00,1.196129949744871055e+03
4.780999999999999694e+00,1.262906901165843465e+03
4.785000000000000142e+00,1.351016621107151650e+03
4.788999999999999702e+00,1.445867420247808013e+03
4.793000000000000149e+00,1.523874340053006108e+03
4.796999999999999709e+00,1.575227606392571943e+03
4.801000000000000156e+00,1.604031416348992025e+03
4.804999999999999716e+00,1.618439389696596436e+03
4.809000000000000163e+00,1.620271373407129659e+03
4.812999999999999723e+00,1.610580559998789568e+03
4.815999999999999837e+00,1.597966172600064283e+03
4.820000000000000284e+00,1.594289060778081875e+03
4.823999999999999844e+00,1.601008661081818900e+03
4.828000000000000291e+00,1.617695269105371608e+03
4.831999999999999851e+00,1.643174455916052693e+03
4.836000000000000298e+00,1.666275190508425567e+03
4.839999999999999858e+00,1.683715635995671619e+03
4.844000000000000306e+00,1.699757215461731903e+03
4.847999999999999865e+00,1.708318915133544124e+03
4.852000000000000313e+00,1.693286060721547301e+03
4.855000000000000426e+00,1.661716934601336334e+03
4.858999999999999986e+00,1.631206156747341765e+03
4.863000000000000433e+00,1.610984248935462347e+03
4.866999999999999993e+00,1.600134352874557180e+03
4.871000000000000441e+00,1.594352977572593545e+03
4.875000000000000000e+00,1.590541546063179567e+03
4.878999999999999559e+00,1.587381611545148644e+03
4.883000000000000007e+00,1.587932366568757288e+03
4.886999999999999567e+00,1.590895473980723636e+03
4.891000000000000014e+00,1.601640206727542363e+03
4.894999999999999574e+00,1.618769560874183526e+03
4.897999999999999687e+00,1.625742665195821928e+03
4.902000000000000135e+00,1.618235140615133560e+03
4.905999999999999694e+00,1.597211738576541165e+03
4.910000000000000142e+00,1.575816041810485103e+03
4.913999999999999702e+00,1.558109327005855448e+03
4.918000000000000149e+00,1.544545783389273993e+03
4.921999999999999709e+00,1.528863396795853077e+03
4.926000000000000156e+00,1.510302632382151614e+03
4.929999999999999716e+00,1.490000481762142272e+03
4.934000000000000163e+00,1.471983498691561635e+03
4.937999999999999723e+00,1.457164900134780737e+03
4.940999999999999837e+00,1.444645515960206694e+03
4.945000000000000284e+00,1.431761581039924977e+03
4.948999999999999844e+00,1.417672032355886131e+03
4.953000000000000291e+00,1.405514406330554493e+03
4.956999999999999851e+00,1.400471138682738001e+03
4.961000000000000298e+00,1.402449223435729209e+03
4.964999999999999858e+00,1.403907320832531241e+03
4.969000000000000306e+00,1.404906991412857224e+03
4.972999999999999865e+00,1.411962358346507244e+03
4.977000000000000313e+00,1.428698240109878725e+03
4.980000000000000426e+00,1.453752450975722013e+03
4.983999999999999986e+00,1.476301311954742459e+03
4.988000000000000433e+00,1.487830086808839042e+03
4.991999999999999993e+00,1.490445446037333795e+03
4.996000000000000441e+00,1.487460408560923270e+03
5.000000000000000000e+00,1.484770171811419459e+03
5.003999999999999559e+00,1.487218613850542852e+03
5.008000000000000007e+00,1.488531816388113384e+03
5.011999999999999567e+00,1.489545519045608444e+03
5.016000000000000014e+00,1.496311413939546583e+03
5.019999999999999574e+00,1.513881082138078000e+03
5.022999999999999687e+00,1.536841931292192839e+03
5.027000000000000135e+00,1.556818892023047056e+03
5.030999999999999694e+00,1.567730330483837861e+03
5.035000000000000142e+00,1.567167704266960754e+03
5.038999999999999702e+00,1.561492042081018326e+03
5.043000000000000149e+00,1.549067811948662438e+03
5.046999999999999709e+00,1.533931279336101625e+03
5.051000000000000156e+00,1.523510749733678495e+03
5.054999999999999716e+00,1.516790490573477200e+03
5.059000000000000163e+00,1.511127047084247806e+03
5.062999999999999723e+00,1.508815943063488703e+03
5.065999999999999837e+00,1.512841828166153164e+03
5.070000000000000284e+00,1.516599576561717413e+03
5.073999999999999844e+00,1.509126348281176206e+03
5.078000000000000291e+00,1.491127703536808440e+03
5.081999999999999851e+00,1.471516514084694109e+03
5.086000000000000298e+00,1.452248739204984531e+03
5.089999999999999858e+00,1.436536127294391918e+03
5.094000000000000306e+00,1.425714702730619820e+03
5.097999999999999865e+00,1.416962199640803419e+03
5.102000000000000313e+00,1.409167597548931553e+03
5.105000000000000426e+00,1.404922030658984113e+03
5.108999999999999986e+00,1.409230952321096765e+03
5.113000000000000433e+00,1.416487528633787178e+03
5.116999999999999993e+00,1.421696893194858831e+03
5.121000000000000441e+00,1.420396642994585818e+03
5.125000000000000000e+00,1.411469874931954564e+03
5.128999999999999559e+00,1.403576921010716660e+03
5.133000000000000007e+00,1.398291197148270612e+03
5.136999999999999567e+00,1.397926347778955233e+03
5.141000000000000014e+00,1.402572049918152061e+03
5.144999999999999574e+00,1.412585265072737002e+03
5.147999999999999687e+00,1.422488180702044474e+03
5.152000000000000135e+00,1.430053942318269947e+03
5.155999999999999694e+00,1.436971040042993536e+03
5.160000000000000142e+00,1.446153780461090491e+03
5.163999999999999702e+00,1.455357305126238089e+03
5.168000000000000149e+00,1.456807029926703763e+03
5.171999999999999709e+00,1.449945130481647539e+03
5.176000000000000156e+00,1.434780816626172737e+03
5.179999999999999716e+00,1.413899832073878997e+03
5.184000000000000163e+00,1.386661810540985471e+03
5.187999999999999723e+00,1.358731053990843293e+03
5.190999999999999837e+00,1.336154031727484153e+03
5.195000000000000284e+00,1.322283835698352050e+03
5.198999999999999844e+00,1.320316796390919762e+03
5.203000000000000291e+00,1.331228108031043121e+03
5.206999999999999851e+00,1.349685188166022044e+03
5.211000000000000298e+00,1.370014645786548272e+03
5.214999999999999858e+00,1.390962635272051784e+03
5.219000000000000306e+00,1.412084885449930425e+03
5.222999999999999865e+00,1.424313719778825998e+03
5.227000000000000313e+00,1.424660562930015203e+03
5.230000000000000426e+00,1.420183681509787220e+03
5.233999999999999986e+00,1.418216606015543448e+03
5.238000000000000433e+00,1.422781774560381791e+03
5.241999999999999993e+00,1.430512273633725272e+03
5.246000000000000441e+00,1.438180461970543547e+03
5.250000000000000000e+00,1.445475571884846204e+03
5.253999999999999559e+00,1.446888833474003377e+03
5.258000000000000007e+00,1.444277438384925745e+03
5.261999999999999567e+00,1.442122841926148794e+03
5.266000000000000014e+00,1.437590705871106820e+03
5.269999999999999574e+00,1.431266983790707172e+03
5.272999999999999687e+00,1.416459118303344212e+03
5.277000000000000135e+00,1.384955217965149131e+03
5.280999999999999694e+00,1.342600174609597843e+03
5.285000000000000142e+00,1.298836570721402495e+03
5.288999999999999702e+00,1.268265638055743466e+03
5.293000000000000149e+00,1.252875002828803417e+03
5.296999999999999709e+00,1.246671328401949268e+03
5.301000000000000156e+00,1.247463952823515228e+03
5.304999999999999716e+00,1.252902967540665713e+03
5.309000000000000163e+00,1.260426244784196342e+03
5.312999999999999723e+00,1.267819187295853681e+03
5.315999999999999837e+00,1.272626042066508717e+03
5.320000000000000284e+00,1.275951659339782736e+03
5.323999999999999844e+00,1.276954573643646199e+03
5.328000000000000291e+00,1.272837121283756005e+03
5.331999999999999851e+00,1.264242285605388815e+03
5.336000000000000298e+00,1.257671307208036069e+03
5.339999999999999858e+00,1.257728065863625716e+03
5.344000000000000306e+00,1.263891013065167044e+03
5.347999999999999865e+00,1.273480095550046144e+03
5.352000000000000313e+00,1.283660751715853849e+03
5.355000000000000426e+00,1.291725545148094625e+03
5.358999999999999986e+00,1.289599334707704656e+03
5.363000000000000433e+00,1.276080294711781335e+03
5.366999999999999993e+00,1.262875848802441396e+03
5.371000000000000441e+00,1.261652379191378486e+03
5.375000000000000000e+00,1.281316413028259831e+03
5.378999999999999559e+00,1.317222541953789460e+03
5.383000000000000007e+00,1.355414459230464217e+03
5.386999999999999567e+00,1.392753058634912122e+03
5.391000000000000014e+00,1.427668759614945429e+03
5.394999999999999574e+00,1.462485976846169933e+03
5.397999999999999687e+00,1.488184616042949528e+03
5.402000000000000135e+00,1.497683977713218610e+03
5.405999999999999694e+00,1.496925892045814180e+03
5.410000000000000142e+00,1.498174150316185660e+03
5.413999999999999702e+00,1.513896552899242806e+03
5.418000000000000149e+00,1.541796947074445825e+03
5.421999999999999709e+00,1.571988180719356478e+03
5.426000000000000156e+00,1.598526325372185056e+03
5.429999999999999716e+00,1.620498265311659907e+03
5.434000000000000163e+00,1.639471815144766197e+03
5.437999999999999723e+00,1.655553826530434890e+03
5.440999999999999837e+00,1.666471428868247131e+03
5.445000000000000284e+00,1.672021594137535203e+03
5.448999999999999844e+00,1.676492572248097758e+03
5.453000000000000291e+00,1.684126450930503324e+03
5.456999999999999851e+00,1.696344059872903017e+03
5.461000000000000298e+00,1.703476672538286493e+03
5.464999999999999858e+00,1.693810203328862372e+03
5.469000000000000306e+00,1.667866026125679355e+03
5.472999999999999865e+00,1.637199705802804147e+03
5.477000000000000313e+00,1.617579376510711654e+03
5.480000000000000426e+00,1.610367793489373980e+03
5.483999999999999986e+00,1.610697012674257849e+03
5.488000000000000433e+00,1.609611439276880674e+03
5.491999999999999993e+00,1.602329888633817973e+03
5.496000000000000441e+00,1.586277007938624365e+03
5.500000000000000000e+00,1.560387828426560191e+03
5.503999999999999559e+00,1.528384717562253854e+03
5.508000000000000007e+00,1.499028654765094188e+03
5.511999999999999567e+00,1.478956297788980692e+03
5.516000000000000014e+00,1.467100294306747173e+03
5.519999999999999574e+00,1.459600211132539698e+03
5.522999999999999687e+00,1.461970387288194615e+03
5.527000000000000135e+00,1.471925333174210664e+03
5.530999999999999694e+00,1.481032827308921014e+03
5.535000000000000142e+00,1.478904631167913521e+03
5.538999999999999702e+00,1.463407954947573899e+03
5.543000000000000149e+00,1.441180189872851770e+03
5.546999999999999709e+00,1.418591855878817796e+03
5.551000000000000156e+00,1.394390395020169080e+03
5.554999999999999716e+00,1.366060801569028627e+03
5.559000000000000163e+00,1.347563011947512450e+03
5.562999999999999723e+00,1.354361583619600879e+03
5.565999999999999837e+00,1.383120853693549407e+03
5.570000000000000284e+00,1.410845984825220739e+03
5.573999999999999844e+00,1.418048283724293697e+03
5.578000000000000291e+00,1.401231489348503601e+03
5.581999999999999851e+00,1.368284255536463661e+03
5.586000000000000298e+00,1.324593403152247447e+03
5.589999999999999858e+00,1.278246331608806031e+03
5.594000000000000306e+00,1.244995544427356435e+03
5.597999999999999865e+00,1.240924535701342847e+03
5.602000000000000313e+00,1.267135395345624147e+03
5.605000000000000426e+00,1.311274991921327455e+03
5.608999999999999986e+00,1.362736455013074192e+03
5.613000000000000433e+00,1.413781716425381546e+03
5.616999999999999993e+00,1.458273000832875141e+03
5.621000000000000441e+00,1.491947952655079689e+03
5.625000000000000000e+00,1.513786601694599995e+03
5.628999999999999559e+00,1.527589707082135646e+03
5.633000000000000007e+00,1.540044556284762848e+03
5.636999999999999567e+00,1.550237838121568529e+03
5.641000000000000014e+00,1.556702765832019850e+03
5.644999999999999574e+00,1.554743091095192995e+03
5.647999999999999687e+00,1.545208103817422852e+03
5.652000000000000135e+00,1.539002519612094829e+03
5.655999999999999694e+00,1.552180454242395172e+03
5.660000000000000142e+00,1.592036972716051196e+03
5.663999999999999702e+00,1.645019401989680773e+03
5.668000000000000149e+00,1.692565423064409970e+03
5.671999999999999709e+00,1.716251489535616656e+03
5.676000000000000156e+00,1.711553295641315799e+03
5.679999999999999716e+00,1.681086554875886577e+03
5.684000000000000163e+00,1.637144764762351542e+03
5.687999999999999723e+00,1.603890229828107522e+03
5.690999999999999837e+00,1.594390542699794878e+03
5.695000000000000284e+00,1.613757332339680488e+03
5.698999999999999844e+00,1.649354867961359560e+03
5.703000000000000291e+00,1.685251438977831640e+03
5.706999999999999851e+00,1.713893137132068659e+03
5.711000000000000298e+00,1.729319518905693258e+03
5.714999999999999858e+00,1.726360007480162949e+03
5.719000000000000306e+00,1.703467905404250359e+03
5.722999999999999865e+00,1.668107358058791078e+03
5.727000000000000313e+00,1.622075089641364912e+03
5.730000000000000426e+00,1.568338079995075759e+03
5.733999999999999986e+00,1.509973875782604637e+03
5.738000000000000433e+00,1.467126719219448205e+03
5.741999999999999993e+00,1.464891451273794701e+03
5.746000000000000441e+00,1.498364658290996658e+03
5.750000000000000000e+00,1.535038445604930985e+03
5.753999999999999559e+00,1.547306165431260524e+03
5.758000000000000007e+00,1.535368921749031870e+03
5.761999999999999567e+00,1.512084698814467174e+03
5.766000000000000014e+00,1.486496299452793892e+03
5.769999999999999574e+00,1.461885832241896196e+03
5.772999999999999687e+00,1.443363367076340865e+03
5.777000000000000135e+00,1.429607610863878563e+03
5.780999999999999694e+00,1.421022323391536020e+03
5.785000000000000142e+00,1.419925069469870778e+03
5.788999999999999702e+00,1.422727429046794441e+03
5.793000000000000149e+00,1.423464990775962178e+03
5.796999999999999709e+00,1.416207196723411926e+03
5.801000000000000156e+00,1.399123831039308698e+03
5.804999999999999716e+00,1.379882054708448095e+03
5.809000000000000163e+00,1.360170435276016406e+03
5.812999999999999723e+00,1.333353968294338529e+03
5.815999999999999837e+00,1.310684516493797219e+03
5.820000000000000284e+00,1.300471363301925521e+03
5.823999999999999844e+00,1.299778047035875488e+03
5.828000000000000291e+00,1.302781519222771749e+03
5.831999999999999851e+00,1.311881302628752337e+03
5.836000000000000298e+00,1.332610390713588458e+03
5.839999999999999858e+00,1.352047240850843991e+03
5.844000000000000306e+00,1.338204952462158190e+03
5.847999999999999865e+00,1.281881196019412755e+03
5.852000000000000313e+00,1.212906903176146670e+03
5.855000000000000426e+00,1.169630840990704428e+03
5.858999999999999986e+00,1.167041625538395920e+03
5.863000000000000433e+00,1.197910031377151654e+03
5.866999999999999993e+00,1.244822555164669438e+03
5.871000000000000441e+00,1.280820566479386798e+03
5.875000000000000000e+00,1.284794801485714970e+03
5.878999999999999559e+00,1.269687238961391813e+03
5.883000000000000007e+00,1.266662122979407741e+03
5.886999999999999567e+00,1.285544114480515191e+03
5.891000000000000014e+00,1.311232240234673782e+03
5.894999999999999574e+00,1.325899395782875217e+03
5.897999999999999687e+00,1.335706776803219327e+03
5.902000000000000135e+00,1.352347723978909244e+03
5.905999999999999694e+00,1.372025251276532117e+03
5.910000000000000142e+00,1.382618357539120325e+03
5.913999999999999702e+00,1.391241963760031695e+03
5.918000000000000149e+00,1.416197328219228439e+03
5.921999999999999709e+00,1.457207138007221374e+03
5.926000000000000156e+00,1.493757735652534620e+03
5.929999999999999716e+00,1.509096056596584731e+03
5.934000000000000163e+00,1.506739839667152182e+03
5.937999999999999723e+00,1.505920907914871350e+03
5.940999999999999837e+00,1.511592185440290450e+03
5.945000000000000284e+00,1.520882083395962354e+03
5.948999999999999844e+00,1.529475703045929777e+03
5.953000000000000291e+00,1.526939523295398203e+03
5.956999999999999851e+00,1.512201973577115950e+03
5.961000000000000298e+00,1.519108239421767394e+03
5.964999999999999858e+00,1.594620576870483546e+03
5.969000000000000306e+00,1.732096817002487796e+03
5.972999999999999865e+00,1.867306045417110454e+03
5.977000000000000313e+00,1.946996938794154858e+03
5.980000000000000426e+00,1.997652780790299403e+03
5.983999999999999986e+00,2.079021279094179135e+03
5.988000000000000433e+00,2.204138480927713317e+03
5.991999999999999993e+00,2.336359129288995064e+03
5.996000000000000441e+00,2.429621001042432908e+03
6.000000000000000000e+00,2.446405486953553464e+03
6.003999999999999559e+00,2.376206616452567687e+03
6.008000000000000007e+00,2.246303633084888133e+03
6.011999999999999567e+00,2.121539246647187611e+03
6.016000000000000014e+00,2.069508476185707877e+03
6.019999999999999574e+00,2.103073129118562974e+03
6.022999999999999687e+00,2.184481205973416763e+03
6.027000000000000135e+00,2.265929116700456689e+03
6.030999999999999694e+00,2.318923100494208029e+03
6.035000000000000142e+00,2.334178208715412893e+03
6.038999999999999702e+00,2.304696003155361723e+03
6.043000000000000149e+00,2.226011888327192537e+03
6.046999999999999709e+00,2.127404473117561338e+03
6.051000000000000156e+00,2.051320484866940205e+03
6.054999999999999716e+00,2.019228309549976075e+03
6.059000000000000163e+00,2.012863860615073008e+03
6.062999999999999723e+00,1.997393142451896665e+03
6.065999999999999837e+00,1.968917820456703566e+03
6.070000000000000284e+00,1.960467671709495789e+03
6.073999999999999844e+00,1.986327041473268991e+03
6.078000000000000291e+00,2.025111255352584521e+03
6.081999999999999851e+00,2.042006121140087544e+03
6.086000000000000298e+00,2.016464154270911195e+03
6.089999999999999858e+00,1.947276342933197611e+03
6.094000000000000306e+00,1.861969545109986484e+03
6.097999999999999865e+00,1.831453047594910458e+03
6.102000000000000313e+00,1.923023609122883045e+03
6.105000000000000426e+00,2.126735327054244408e+03
6.108999999999999986e+00,2.324043515065639440e+03
6.113000000000000433e+00,2.387182949910638854e+03
6.116999999999999993e+00,2.303421246208238699e+03
6.121000000000000441e+00,2.170183773186273811e+03
6.125000000000000000e+00,2.044313415854578579e+03
6.128999999999999559e+00,1.877764760450528229e+03
6.133000000000000007e+00,1.632212008141718343e+03
6.136999999999999567e+00,1.345638177463879401e+03
6.141000000000000014e+00,1.128475991455874464e+03
6.144999999999999574e+00,1.075886843171193959e+03
6.147999999999999687e+00,1.179227715356990757e+03
6.152000000000000135e+00,1.351114989191408313e+03
6.155999999999999694e+00,1.510497821527803808e+03
6.160000000000000142e+00,1.624007932619188068e+03
6.163999999999999702e+00,1.669310224629739196e+03
6.168000000000000149e+00,1.634737484028227982e+03
6.171999999999999709e+00,1.523098862715188943e+03
6.176000000000000156e+00,1.353290906772495418e+03
6.179999999999999716e+00,1.167213051459575354e+03
6.184000000000000163e+00,1.029012570599526043e+03
6.187999999999999723e+00,9.979942090020506384e+02
6.190999999999999837e+00,1.078869338134369627e+03
6.195000000000000284e+00,1.219497928583238718e+03
6.198999999999999844e+00,1.334944516497561153e+03
6.203000000000000291e+00,1.347968239515835876e+03
6.206999999999999851e+00,1.226112781162605870e+03
6.211000000000000298e+00,9.897298456008187486e+02
6.214999999999999858e+00,7.038831013186179462e+02
6.219000000000000306e+00,4.441222367092895524e+02
6.222999999999999865e+00,2.764750168591956481e+02
6.227000000000000313e+00,2.336711416506870194e+02
6.230000000000000426e+00,2.803389246715821628e+02
6.233999999999999986e+00,3.316642837504792283e+02
6.238000000000000433e+00,3.512856567360052509e+02
6.241999999999999993e+00,3.770739288771496263e+02
6.246000000000000441e+00,4.709600080215421940e+02
6.250000000000000000e+00,6.613920072847319034e+02
6.253999999999999559e+00,9.084230593513492522e+02
6.258000000000000007e+00,1.132170095284948729e+03
6.261999999999999567e+00,1.249323297969306168e+03
6.266000000000000014e+00,1.219046823191291878e+03
6.269999999999999574e+00,1.083959881218466990e+03
6.272999999999999687e+00,9.260184770908782639e+02
6.277000000000000135e+00,7.973003831852961412e+02
6.280999999999999694e+00,7.137661094793663779e+02
6.285000000000000142e+00,7.102111793990617343e+02
6.288999999999999702e+00,8.202866292843430074e+02
6.293000000000000149e+00,9.934537456670036590e+02
6.296999999999999709e+00,1.100281014903651567e+03
6.301000000000000156e+00,1.047406690875053982e+03
6.304999999999999716e+00,8.688942087094717408e+02
6.309000000000000163e+00,6.761361929564571938e+02
6.312999999999999723e+00,5.422135353153114465e+02
6.315999999999999837e+00,4.756655154457307617e+02
6.320000000000000284e+00,4.813165547830308242e+02
6.323999999999999844e+00,5.602413351899078862e+02
6.328000000000000291e+00,6.809833056167746008e+02
6.331999999999999851e+00,7.793559786904364728e+02
6.336000000000000298e+00,8.268315119380192755e+02
6.339999999999999858e+00,8.660397519266211930e+02
6.344000000000000306e+00,9.599674527536819824e+02
6.347999999999999865e+00,1.094322191270530993e+03
6.352000000000000313e+00,1.210684705704898079e+03
6.355000000000000426e+00,1.259759848816877138e+03
6.358999999999999986e+00,1.242496618941136148e+03
6.363000000000000433e+00,1.196585316663444019e+03
6.366999999999999993e+00,1.160763492640784307e+03
6.371000000000000441e+00,1.167765103808600315e+03
6.375000000000000000e+00,1.242524741669417836e+03
6.378999999999999559e+00,1.375099813014901201e+03
6.383000000000000007e+00,1.505704451496428646e+03
6.386999999999999567e+00,1.570143613359743313e+03
6.391000000000000014e+00,1.554821440702809468e+03
6.394999999999999574e+00,1.494562831813359935e+03
6.397999999999999687e+00,1.431470893504188780e+03
6.402000000000000135e+00,1.392965242698287057e+03
6.405999999999999694e+00,1.383621275715691809e+03
6.410000000000000142e+00,1.396298249199981456e+03
6.413999999999999702e+00,1.416679439881822645e+03
6.418000000000000149e+00,1.428934136582605561e+03
6.421999999999999709e+00,1.421515269146648052e+03
6.426000000000000156e+00,1.398796344414467740e+03
6.429999999999999716e+00,1.374857268476442869e+03
6.434000000000000163e+00,1.372193089350379751e+03
6.437999999999999723e+00,1.389211260528048115e+03
6.440999999999999837e+00,1.407918202491054444e+03
6.445000000000000284e+00,1.412321179809500791e+03
6.448999999999999844e+00,1.390853802214882080e+03
6.453000000000000291e+00,1.357102286557099887e+03
6.456999999999999851e+00,1.332923117167174269e+03
6.461000000000000298e+00,1.337360939555253935e+03
6.464999999999999858e+00,1.369639454353221709e+03
6.469000000000000306e+00,1.411242326639047405e+03
6.472999999999999865e+00,1.444116806063561171e+03
6.477000000000000313e+00,1.467905692826441282e+03
6.480000000000000426e+00,1.493037746709839439e+03
6.483999999999999986e+00,1.525334648489770643e+03
6.488000000000000433e+00,1.555709583246627744e+03
6.491999999999999993e+00,1.559833723825169955e+03
6.496000000000000441e+00,1.521363788781188532e+03
6.500000000000000000e+00,1.442769132042058800e+03
6.503999999999999559e+00,1.352332372252728192e+03
6.508000000000000007e+00,1.279291594865801699e+03
6.511999999999999567e+00,1.242454242709261052e+03
6.516000000000000014e+00,1.248579813031542471e+03
6.519999999999999574e+00,1.288793368241332928e+03
6.522999999999999687e+00,1.348218069717605431e+03
6.527000000000000135e+00,1.407629106024580096e+03
6.530999999999999694e+00,1.448648170091746579e+03
6.535000000000000142e+00,1.465760451993455035e+03
6.538999999999999702e+00,1.465084202879923623e+03
6.543000000000000149e+00,1.446954067224987739e+03
6.546999999999999709e+00,1.404648501910570303e+03
6.551000000000000156e+00,1.344903849318179709e+03
6.554999999999999716e+00,1.297464509251779873e+03
6.559000000000000163e+00,1.285419556800276496e+03
6.562999999999999723e+00,1.310662101557586993e+03
6.565999999999999837e+00,1.356988447167874028e+03
6.570000000000000284e+00,1.393061461156922405e+03
6.573999999999999844e+00,1.399183195264578217e+03
6.578000000000000291e+00,1.381887545951055017e+03
6.581999999999999851e+00,1.373216202787445809e+03
6.586000000000000298e+00,1.394048711105874872e+03
6.589999999999999858e+00,1.426995133860513761e+03
6.594000000000000306e+00,1.452740676619860551e+03
6.597999999999999865e+00,1.473573622598784368e+03
6.602000000000000313e+00,1.488100461779636362e+03
6.605000000000000426e+00,1.481744942627795581e+03
6.608999999999999986e+00,1.454603764034058941e+03
6.613000000000000433e+00,1.434136438337935033e+03
6.616999999999999993e+00,1.436086608090835853e+03
6.621000000000000441e+00,1.452294238221218848e+03
6.625000000000000000e+00,1.468059975475239298e+03
6.628999999999999559e+00,1.469119551143135141e+03
6.633000000000000007e+00,1.449659691211498512e+03
6.636999999999999567e+00,1.409360752649694177e+03
6.641000000000000014e+00,1.359478629000109095e+03
6.644999999999999574e+00,1.320514115086708216e+03
6.647999999999999687e+00,1.302777285611411344e+03
6.652000000000000135e+00,1.306111794217488296e+03
6.655999999999999694e+00,1.326503063357848077e+03
6.660000000000000142e+00,1.360973223897471826e+03
6.663999999999999702e+00,1.401349662953659390e+03
6.668000000000000149e+00,1.435893433122619854e+03
6.671999999999999709e+00,1.457075409746087416e+03
6.676000000000000156e+00,1.454927318742101079e+03
6.679999999999999716e+00,1.418952686029967936e+03
6.684000000000000163e+00,1.352944176183424361e+03
6.687999999999999723e+00,1.277774174520537827e+03
6.690999999999999837e+00,1.218115020792924042e+03
6.695000000000000284e+00,1.185989347837840796e+03
6.698999999999999844e+00,1.173591720239620145e+03
6.703000000000000291e+00,1.176525528524837227e+03
6.706999999999999851e+00,1.207448882396354975e+03
6.711000000000000298e+00,1.274163758600183428e+03
6.714999999999999858e+00,1.351590703048942714e+03
6.719000000000000306e+00,1.401709017855022921e+03
6.722999999999999865e+00,1.391069462644082023e+03
6.727000000000000313e+00,1.334949022279913606e+03
6.730000000000000426e+00,1.267664421870353635e+03
6.733999999999999986e+00,1.219777333696285950e+03
6.738000000000000433e+00,1.204513199488011878e+03
6.741999999999999993e+00,1.222018849432321531e+03
6.746000000000000441e+00,1.262728674926083841e+03
6.750000000000000000e+00,1.317217536128317079e+03
6.753999999999999559e+00,1.372033211796961950e+03
6.758000000000000007e+00,1.423545651879381467e+03
6.761999999999999567e+00,1.462357160872100167e+03
6.766000000000000014e+00,1.473610710566830903e+03
6.769999999999999574e+00,1.463139197488414311e+03
6.772999999999999687e+00,1.450405459472552366e+03
6.777000000000000135e+00,1.440634684679257361e+03
6.780999999999999694e+00,1.429748736957673600e+03
6.785000000000000142e+00,1.411997053239692150e+03
6.788999999999999702e+00,1.391839384598470360e+03
6.793000000000000149e+00,1.378450529749083216e+03
6.796999999999999709e+00,1.376000854698882222e+03
6.801000000000000156e+00,1.388469571121120453e+03
6.804999999999999716e+00,1.409367506750091479e+03
6.809000000000000163e+00,1.422643988865238953e+03
6.812999999999999723e+00,1.414708961260346996e+03
6.815999999999999837e+00,1.392308937392531334e+03
6.820000000000000284e+00,1.365809718839077505e+03
6.823999999999999844e+00,1.352036405160341246e+03
6.828000000000000291e+00,1.362212940453115380e+03
6.831999999999999851e+00,1.394426210944953027e+03
6.836000000000000298e+00,1.432375885351124225e+03
6.839999999999999858e+00,1.461873591605452248e+03
6.844000000000000306e+00,1.470349519775513272e+03
6.847999999999999865e+00,1.458773621629611625e+03
6.852000000000000313e+00,1.433497158180886800e+03
6.855000000000000426e+00,1.400438304728986623e+03
6.858999999999999986e+00,1.358282757340867420e+03
6.863000000000000433e+00,1.313031899484883752e+03
6.866999999999999993e+00,1.280189224628438751e+03
6.871000000000000441e+00,1.265871139835542408e+03
6.875000000000000000e+00,1.271686201690436747e+03
6.878999999999999559e+00,1.292853572646837165e+03
6.883000000000000007e+00,1.320449870886763847e+03
6.886999999999999567e+00,1.344258323355097218e+03
6.891000000000000014e+00,1.369697553366211878e+03
6.894999999999999574e+00,1.386446501984411043e+03
6.897999999999999687e+00,1.384173304620054296e+03
6.902000000000000135e+00,1.363960148031593235e+03
6.905999999999999694e+00,1.347364480540020850e+03
6.910000000000000142e+00,1.350675350972363049e+03
6.913999999999999702e+00,1.378002008204402046e+03
6.918000000000000149e+00,1.420061907863532952e+03
6.921999999999999709e+00,1.466738659534644739e+03
6.926000000000000156e+00,1.505660533770208303e+03
6.929999999999999716e+00,1.525422798769012843e+03
6.934000000000000163e+00,1.525571992966025164e+03
6.937999999999999723e+00,1.512928849167396720e+03
6.940999999999999837e+00,1.499704358820757079e+03
6.945000000000000284e+00,1.494902183396338160e+03
6.948999999999999844e+00,1.497923683000326719e+03
6.953000000000000291e+00,1.503390175023145048e+03
6.956999999999999851e+00,1.511296020506572631e+03
6.961000000000000298e+00,1.525881607560936800e+03
6.964999999999999858e+00,1.547170646399853695e+03
6.969000000000000306e+00,1.566764731034736315e+03
6.972999999999999865e+00,1.574746708999868133e+03
6.977000000000000313e+00,1.567156730530773075e+03
6.980000000000000426e+00,1.549244404404802026e+03
6.983999999999999986e+00,1.523822320736165466e+03
6.988000000000000433e+00,1.486331607455231733e+03
6.991999999999999993e+00,1.432812077598578981e+03
6.996000000000000441e+00,1.368686150309972163e+03
7.000000000000000000e+00,1.307428755807297648e+03
7.003999999999999559e+00,1.259795093468789446e+03
7.008000000000000007e+00,1.235135437415808155e+03
7.011999999999999567e+00,1.226160241947460008e+03
7.016000000000000014e+00,1.226639976230191905e+03
7.019999999999999574e+00,1.232917602355897770e+03
7.022999999999999687e+00,1.237937844875323663e+03
7.027000000000000135e+00,1.232803431091399034e+03
7.030999999999999694e+00,1.216546686929138559e+03
7.035000000000000142e+00,1.190204191652546342e+03
7.038999999999999702e+00,1.159553696066280281e+03
7.043000000000000149e+00,1.136960628811272727e+03
7.046999999999999709e+00,1.126485012081567902e+03
7.051000000000000156e+00,1.137571960247117431e+03
7.054999999999999716e+00,1.170495682956146538e+03
7.059000000000000163e+00,1.218288516190045584e+03
7.062999999999999723e+00,1.274402944341121611e+03
7.065999999999999837e+00,1.335884998507164482e+03
7.070000000000000284e+00,1.400812087987107816e+03
7.073999999999999844e+00,1.461760838273215768e+03
7.078000000000000291e+00,1.500465127496841887e+03
7.081999999999999851e+00,1.509546744119899358e+03
7.086000000000000298e+00,1.490940478394753427e+03
7.089999999999999858e+00,1.456288926087513801e+03
7.094000000000000306e+00,1.422352389538625175e+03
7.097999999999999865e+00,1.397640840612764123e+03
7.102000000000000313e+00,1.386788652023296891e+03
7.105000000000000426e+00,1.388501995366660822e+03
7.108999999999999986e+00,1.395835044855147771e+03
7.113000000000000433e+00,1.402640887095802327e+03
7.116999999999999993e+00,1.405960129198264667e+03
7.121000000000000441e+00,1.401536405762760523e+03
7.125000000000000000e+00,1.390978277193912390e+03
7.128999999999999559e+00,1.377017898423832548e+03
7.133000000000000007e+00,1.361852447352575155e+03
7.136999999999999567e+00,1.349261009889908792e+03
7.141000000000000014e+00,1.338479044977976855e+03
7.144999999999999574e+00,1.330151774728279634e+03
7.147999999999999687e+00,1.326438476660970309e+03
7.152000000000000135e+00,1.326159481400480672e+03
7.155999999999999694e+00,1.335371299973752002e+03
7.160000000000000142e+00,1.353440826862985659e+03
7.163999999999999702e+00,1.379197536707116342e+03
7.168000000000000149e+00,1.413009798639035580e+03
7.171999999999999709e+00,1.447798254089861530e+03
7.176000000000000156e+00,1.483312108280628536e+03
7.179999999999999716e+00,1.513095325784097668e+03
7.184000000000000163e+00,1.528519832959638279e+03
7.187999999999999723e+00,1.532602050819109763e+03
7.190999999999999837e+00,1.529326297580849086e+03
7.195000000000000284e+00,1.523787109698947461e+03
7.198999999999999844e+00,1.526156562476040790e+03
7.203000000000000291e+00,1.541446748576063328e+03
7.206999999999999851e+00,1.569302069092168040e+03
7.211000000000000298e+00,1.608258798876781157e+03
7.214999999999999858e+00,1.652216996131946416e+03
7.219000000000000306e+00,1.691867194487355619e+03
7.222999999999999865e+00,1.721461751585135062e+03
7.227000000000000313e+00,1.740500775196189352e+03
7.230000000000000426e+00,1.745643287288359488e+03
7.233999999999999986e+00,1.735463015640990534e+03
7.238000000000000433e+00,1.709554042658286562e+03
7.241999999999999993e+00,1.670940423998658162e+03
7.246000000000000441e+00,1.632338285207113131e+03
7.250000000000000000e+00,1.600682155478229561e+03
7.253999999999999559e+00,1.574396103595079239e+03
7.258000000000000007e+00,1.552483665181175638e+03
7.261999999999999567e+00,1.532356684940203422e+03
7.266000000000000014e+00,1.511348331152290029e+03
7.269999999999999574e+00,1.489585945693751455e+03
7.272999999999999687e+00,1.472159580355409389e+03
7.277000000000000135e+00,1.458096591717121328e+03
7.280999999999999694e+00,1.447311960010401435e+03
7.285000000000000142e+00,1.440278077549286991e+03
7.288999999999999702e+00,1.438161801439601732e+03
7.293000000000000149e+00,1.442616079041637931e+03
7.296999999999999709e+00,1.450479969802733194e+03
7.301000000000000156e+00,1.460250759815777428e+03
7.304999999999999716e+00,1.466134438069951329e+03
7.309000000000000163e+00,1.462626298399470897e+03
7.312999999999999723e+00,1.448599848247080672e+03
7.315999999999999837e+00,1.424244227908461653e+03
7.320000000000000284e+00,1.387466292397197094e+03
7.323999999999999844e+00,1.340388813788389371e+03
7.328000000000000291e+00,1.290845420009024792e+03
7.331999999999999851e+00,1.246299504395494296e+03
7.336000000000000298e+00,1.214173915456464329e+03
7.339999999999999858e+00,1.198339341887678529e+03
7.344000000000000306e+00,1.194915466281313911e+03
7.347999999999999865e+00,1.198810278305913016e+03
7.352000000000000313e+00,1.209047547615269195e+03
7.355000000000000426e+00,1.222575988164637010e+03
7.358999999999999986e+00,1.239841905153944026e+03
7.363000000000000433e+00,1.253524212102001002e+03
7.366999999999999993e+00,1.253646402425532187e+03
7.371000000000000441e+00,1.243768785983597809e+03
7.375000000000000000e+00,1.226274056015145788e+03
7.378999999999999559e+00,1.207699581862610785e+03
7.383000000000000007e+00,1.198332188107353204e+03
7.386999999999999567e+00,1.203826189224366544e+03
7.391000000000000014e+00,1.225890776411345087e+03
7.394999999999999574e+00,1.259807344370504097e+03
7.397999999999999687e+00,1.306181440252256607e+03
7.402000000000000135e+00,1.360481336348913374e+03
7.405999999999999694e+00,1.407185803961615420e+03
7.410000000000000142e+00,1.441791277105114432e+03
7.413999999999999702e+00,1.471377084409524969e+03
7.418000000000000149e+00,1.501205119909525820e+03
7.421999999999999709e+00,1.526298678084145649e+03
7.426000000000000156e+00,1.539398849554658000e+03
7.429999999999999716e+00,1.540247736523960612e+03
7.434000000000000163e+00,1.532977734626570509e+03
7.437999999999999723e+00,1.524396031532854749e+03
7.440999999999999837e+00,1.516269225388002724e+03
7.445000000000000284e+00,1.509406886366832623e+03
7.448999999999999844e+00,1.507834213582080110e+03
7.453000000000000291e+00,1.508699086711693099e+03
7.456999999999999851e+00,1.506479134829072564e+03
7.461000000000000298e+00,1.500606805201238103e+03
7.464999999999999858e+00,1.494395652374783822e+03
7.469000000000000306e+00,1.493398211439279748e+03
7.472999999999999865e+00,1.497049097042287485e+03
7.477000000000000313e+00,1.499917896399505025e+03
7.480000000000000426e+00,1.499249741247540669e+03
7.483999999999999986e+00,1.485625023587085707e+03
7.488000000000000433e+00,1.464384499876949576e+03
7.491999999999999993e+00,1.445229367075954315e+03
7.496000000000000441e+00,1.431573068692744755e+03
7.500000000000000000e+00,1.424336893772431949e+03
7.503999999999999559e+00,1.423157932925977775e+03
7.508000000000000007e+00,1.425582386342267228e+03
7.511999999999999567e+00,1.428871921470790539e+03
7.516000000000000014e+00,1.434292065474053970e+03
7.519999999999999574e+00,1.440894860425909428e+03
7.522999999999999687e+00,1.443787973639813572e+03
7.527000000000000135e+00,1.437759279474238610e+03
7.530999999999999694e+00,1.425700046851008210e+03
7.535000000000000142e+00,1.415584060897536801e+03
7.538999999999999702e+00,1.411789855394805045e+03
7.543000000000000149e+00,1.416657410238628245e+03
7.546999999999999709e+00,1.426947544484892205e+03
7.551000000000000156e+00,1.433531042543566173e+03
7.554999999999999716e+00,1.440588762278856620e+03
7.559000000000000163e+00,1.453790910547882277e+03
7.562999999999999723e+00,1.464988946089618366e+03
7.565999999999999837e+00,1.470768975701639420e+03
7.570000000000000284e+00,1.469812148673493994e+03
7.573999999999999844e+00,1.469039207202894204e+03
7.578000000000000291e+00,1.473746404818357178e+03
7.581999999999999851e+00,1.484556521580483377e+03
7.586000000000000298e+00,1.495501948420327153e+03
7.589999999999999858e+00,1.501037356453467510e+03
7.594000000000000306e+00,1.502096561652804894e+03
7.597999999999999865e+00,1.503497197731182723e+03
7.602000000000000313e+00,1.510849044328572973e+03
7.605000000000000426e+00,1.507335193973044170e+03
7.608999999999999986e+00,1.498274375034070999e+03
7.613000000000000433e+00,1.488678146760149957e+03
7.616999999999999993e+00,1.477933891471459447e+03
7.621000000000000441e+00,1.465350958833939330e+03
7.625000000000000000e+00,1.449298895334967028e+03
7.628999999999999559e+00,1.427363304178118142e+03
7.633000000000000007e+00,1.404824031305524841e+03
7.636999999999999567e+00,1.380286607585805996e+03
7.641000000000000014e+00,1.351472018407557698e+03
7.644999999999999574e+00,1.325503109728869276e+03
7.647999999999999687e+00,1.297758263932810223e+03
7.652000000000000135e+00,1.271024140005767549e+03
7.655999999999999694e+00,1.247052868413668421e+03
7.660000000000000142e+00,1.225714187759504966e+03
7.663999999999999702e+00,1.205097977108934174e+03
7.668000000000000149e+00,1.192707154363645486e+03
7.671999999999999709e+00,1.187212863089455368e+03
7.676000000000000156e+00,1.182483559164327517e+03
7.679999999999999716e+00,1.173015796009106680e+03
7.684000000000000163e+00,1.162112635500399165e+03
7.687999999999999723e+00,1.156711313618285203e+03
7.690999999999999837e+00,1.153790688075481739e+03
7.695000000000000284e+00,1.142028699539523132e+03
7.698999999999999844e+00,1.125235546234734329e+03
7.703000000000000291e+00,1.118834672553375412e+03
7.706999999999999851e+00,1.123120481661062513e+03
7.711000000000000298e+00,1.126507371241043529e+03
7.714999999999999858e+00,1.114836716547990136e+03
7.719000000000000306e+00,1.090965010192537648e+03
7.722999999999999865e+00,1.068626369929594375e+03
7.727000000000000313e+00,1.055493253432799520e+03
7.730000000000000426e+00,1.058331515221051632e+03
7.733999999999999986e+00,1.065265331049249198e+03
7.738000000000000433e+00,1.041486822939522654e+03
7.741999999999999993e+00,1.032588816650245690e+03
7.746000000000000441e+00,1.023207147153609753e+03
7.750000000000000000e+00,1.021343267391450468e+03
7.753999999999999559e+00,1.023460581763390678e+03
7.758000000000000007e+00,1.026301112574204126e+03
7.761999999999999567e+00,1.030769129070401505e+03
7.766000000000000014e+00,1.037472743210812951e+03
7.769999999999999574e+00,1.030319026208300784e+03
7.772999999999999687e+00,1.045505139835019008e+03
7.777000000000000135e+00,1.062249596747416263e+03
7.780999999999999694e+00,1.053336495130659614e+03
7.785000000000000142e+00,1.050858336646055022e+03
7.788999999999999702e+00,1.044666003123313658e+03
7.793000000000000149e+00,1.049319004727905394e+03
7.796999999999999709e+00,1.056659732180106630e+03
7.801000000000000156e+00,1.054121572856035300e+03
7.804999999999999716e+00,1.055103920088173936e+03
7.809000000000000163e+00,1.062714142953874216e+03
7.812999999999999723e+00,1.057866428395985849e+03
7.815999999999999837e+00,1.059059689378431131e+03
7.820000000000000284e+00,1.066036864585005333e+03
7.823999999999999844e+00,1.066178909139944835e+03
7.828000000000000291e+00,1.057111955897392136e+03
7.831999999999999851e+00,1.071028540501413545e+03
7.836000000000000298e+00,1.103993135570364529e+03
7.839999999999999858e+00,1.133964067975198759e+03
7.844000000000000306e+00,1.170080641402742913e+03
7.847999999999999865e+00,1.168442836161143532e+03
7.852000000000000313e+00,1.156534090896926955e+03
7.855000000000000426e+00,1.164925467815134198e+03
7.858999999999999986e+00,1.174190567534215006e+03
7.863000000000000433e+00,1.178180796264299033e+03
7.866999999999999993e+00,1.210452138121316921e+03
7.871000000000000441e+00,1.236107046266966790e+03
7.875000000000000000e+00,1.225837979350651722e+03
7.878999999999999559e+00,1.234073908846054110e+03
7.883000000000000007e+00,1.235479644112044980e+03
7.886999999999999567e+00,1.218187341551369173e+03
7.891000000000000014e+00,1.217483888709369921e+03
7.894999999999999574e+00,1.193999903424823060e+03
7.897999999999999687e+00,1.208715083076034944e+03
7.902000000000000135e+00,1.282797857151721928e+03
7.905999999999999694e+00,1.275748377421325586e+03
7.910000000000000142e+00,1.288474182052799279e+03
7.913999999999999702e+00,1.306089755497632041e+03
7.918000000000000149e+00,1.324593888024055332e+03
7.921999999999999709e+00,1.333129356891876796e+03
7.926000000000000156e+00,1.370937027178880498e+03
7.929999999999999716e+00,1.382485802036943142e+03
7.934000000000000163e+00,1.427827673008336205e+03
7.937999999999999723e+00,1.351323351634381652e+03
7.940999999999999837e+00,1.301038706077805955e+03
7.945000000000000284e+00,1.352623482993233438e+03
7.948999999999999844e+00,1.369442944337204153e+03
7.953000000000000291e+00,1.390717602083188694e+03
7.956999999999999851e+00,1.390489404550364497e+03
7.961000000000000298e+00,1.400263864895515098e+03
7.964999999999999858e+00,1.401684394630482075e+03
7.969000000000000306e+00,1.405009402901709564e+03
7.972999999999999865e+00,1.406866757690271697e+03
7.977000000000000313e+00,1.426011363057111794e+03
7.980000000000000426e+00,1.410889931522462575e+03
7.983999999999999986e+00,1.405332835876164609e+03
7.988000000000000433e+00,1.401525739467200083e+03
7.991999999999999993e+00,1.414248972458013895e+03
7.996000000000000441e+00,1.422605000816159873e+03
8.000000000000000000e+00,1.409668964925292585e+03
8.003999999999999559e+00,1.399948957751912985e+03
8.007999999999999119e+00,1.393477068428441726e+03
8.012000000000000455e+00,1.384321036670468402e+03
8.016000000000000014e+00,1.390588433874172324e+03
8.019999999999999574e+00,1.393331012992195383e+03
8.022999999999999687e+00,1.388915310305375897e+03
8.026999999999999247e+00,1.376651431325893100e+03
8.031000000000000583e+00,1.373454564916342633e+03
8.035000000000000142e+00,1.384943888246341658e+03
8.038999999999999702e+00,1.385343129851764388e+03
8.042999999999999261e+00,1.388715355734687591e+03
8.047000000000000597e+00,1.386824716692080983e+03
8.051000000000000156e+00,1.388506957280201959e+03
8.054999999999999716e+00,1.388099096622860998e+03
8.058999999999999275e+00,1.388095064161700066e+03
8.063000000000000611e+00,1.387966292214781106e+03
8.066000000000000725e+00,1.380417941163639853e+03
8.070000000000000284e+00,1.340498495063769042e+03
8.073999999999999844e+00,1.336579944881292704e+03
8.077999999999999403e+00,1.355169674041371309e+03
8.082000000000000739e+00,1.367791487883481977e+03
8.086000000000000298e+00,1.381335926316953419e+03
8.089999999999999858e+00,1.382766942075307497e+03
8.093999999999999417e+00,1.387548350690101188e+03
8.098000000000000753e+00,1.388949294394174785e+03
8.102000000000000313e+00,1.386236133962142958e+03
8.105000000000000426e+00,1.391336910525141320e+03
8.108999999999999986e+00,1.400250000752514097e+03
8.112999999999999545e+00,1.388395187494784295e+03
8.117000000000000881e+00,1.384654174731043440e+03
8.121000000000000441e+00,1.386660754779984927e+03
8.125000000000000000e+00,1.393918115658651459e+03
8.128999999999999559e+00,1.406023425600420524e+03
8.132999999999999119e+00,1.406515259103986182e+03
8.137000000000000455e+00,1.396588584850453117e+03
8.141000000000000014e+00,1.390064505091075262e+03
8.144999999999999574e+00,1.378665219447468644e+03
8.147999999999999687e+00,1.363089534741719490e+03
8.151999999999999247e+00,1.353008557386374378e+03
8.156000000000000583e+00,1.348504937412818663e+03
8.160000000000000142e+00,1.353736043514045377e+03
8.163999999999999702e+00,1.369138412967745126e+03
8.167999999999999261e+00,1.380038932330583975e+03
8.172000000000000597e+00,1.381927668252925287e+03
8.176000000000000156e+00,1.375741950583409107e+03
8.179999999999999716e+00,1.361511556196249558e+03
8.183999999999999275e+00,1.351248078448646766e+03
8.188000000000000611e+00,1.347616193427963481e+03
8.191000000000000725e+00,1.346846194132042001e+03
8.195000000000000284e+00,1.349434134155003449e+03
8.198999999999999844e+00,1.354508705996015124e+03
8.202999999999999403e+00,1.360071755157074676e+03
8.207000000000000739e+00,1.364937452073744680e+03
8.211000000000000298e+00,1.367248146013885389e+03
8.214999999999999858e+00,1.366876728084864681e+03
8.218999999999999417e+00,1.366933756207037732e+03
8.223000000000000753e+00,1.373384961183653786e+03
8.227000000000000313e+00,1.374939271522575609e+03
8.230000000000000426e+00,1.368501245399092795e+03
8.233999999999999986e+00,1.362849572112073702e+03
8.237999999999999545e+00,1.367652882605869991e+03
8.242000000000000881e+00,1.385392906996123656e+03
8.246000000000000441e+00,1.398484119101771739e+03
8.250000000000000000e+00,1.397743098023171342e+03
8.253999999999999559e+00,1.399762201264621581e+03
8.257999999999999119e+00,1.415237348479703769e+03
8.262000000000000455e+00,1.440368420231277696e+03
8.266000000000000014e+00,1.466264297013812893e+03
8.269999999999999574e+00,1.467683548634224962e+03
8.272999999999999687e+00,1.448705728596129120e+03
8.276999999999999247e+00,1.438230107556943494e+03
8.281000000000000583e+00,1.447216635077169713e+03
8.285000000000000142e+00,1.455274169229191102e+03
8.288999999999999702e+00,1.447679321336369867e+03
8.292999999999999261e+00,1.418169031161789690e+03
8.297000000000000597e+00,1.406011960192592596e+03
8.301000000000000156e+00,1.422042872431147316e+03
8.304999999999999716e+00,1.449099256785715170e+03
8.308999999999999275e+00,1.450645158781211194e+03
8.313000000000000611e+00,1.401541519086343669e+03
8.316000000000000725e+00,1.363715208968766547e+03
8.320000000000000284e+00,1.361887531204381958e+03
8.323999999999999844e+00,1.366587561603209679e+03
8.327999999999999403e+00,1.340902298608340288e+03
8.332000000000000739e+00,1.298211230403495392e+03
8.336000000000000298e+00,1.292939801609338019e+03
8.339999999999999858e+00,1.330013555002089788e+03
8.343999999999999417e+00,1.362606053524646995e+03
8.348000000000000753e+00,1.386207915637741962e+03
8.352000000000000313e+00,1.396354154750600856e+03
8.355000000000000426e+00,1.380005685108085345e+03
8.358999999999999986e+00,1.362014255745994660e+03
8.362999999999999545e+00,1.364766301755313179e+03
8.367000000000000881e+00,1.374326196422812018e+03
8.371000000000000441e+00,1.373807010929545413e+03
8.375000000000000000e+00,1.363025730994915875e+03
8.378999999999999559e+00,1.360811851664188225e+03
8.382999999999999119e+00,1.377391436378359458e+03
8.387000000000000455e+00,1.391715166577857417e+03
8.391000000000000014e+00,1.396379149435228101e+03
8.394999999999999574e+00,1.394691244411981870e+03
8.397999999999999687e+00,1.400739470585943536e+03
8.401999999999999247e+00,1.419882535154580637e+03
8.406000000000000583e+00,1.438122131917333718e+03
8.410000000000000142e+00,1.448622827582600848e+03
8.413999999999999702e+00,1.450021730489557740e+03
8.417999999999999261e+00,1.449878071971269037e+03
8.422000000000000597e+00,1.452919055244902438e+03
8.426000000000000156e+00,1.454323860780503082e+03
8.429999999999999716e+00,1.452185241387738643e+03
8.433999999999999275e+00,1.448309672706026731e+03
8.438000000000000611e+00,1.443656534034460947e+03
8.441000000000000725e+00,1.440279532949845816e+03
8.445000000000000284e+00,1.436245182890908382e+03
8.448999999999999844e+00,1.430491217012382776e+03
8.452999999999999403e+00,1.424212305675383504e+03
8.457000000000000739e+00,1.420376261967858227e+03
8.461000000000000298e+00,1.417086728833857478e+03
8.464999999999999858e+00,1.413589143389254559e+03
8.468999999999999417e+00,1.410952300582428734e+03
8.473000000000000753e+00,1.404100339983071535e+03
8.477000000000000313e+00,1.392007393220082804e+03
8.480000000000000426e+00,1.373182195335704137e+03
8.483999999999999986e+00,1.351925630326740929e+03
8.487999999999999545e+00,1.332341170466258973e+03
8.492000000000000881e+00,1.315323055761847854e+03
8.496000000000000441e+00,1.295833337889119093e+03
8.500000000000000000e+00,1.271637415840034464e+03
8.503999999999999559e+00,1.240661764792725990e+03
8.507999999999999119e+00,1.201166090192340562e+03
8.512000000000000455e+00,1.155966983647152119e+03
8.516000000000000014e+00,1.113068921594979884e+03
8.519999999999999574e+00,1.075866217296776085e+03
8.522999999999999687e+00,1.043439773173470712e+03
8.526999999999999247e+00,1.008817482455731692e+03
8.531000000000000583e+00,9.753185797860447792e+02
8.535000000000000142e+00,9.495581853638626626e+02
8.538999999999999702e+00,9.280729258878192240e+02
8.542999999999999261e+00,9.078085574092706338e+02
8.547000000000000597e+00,8.894082228922865170e+02
8.551000000000000156e+00,8.748160007640683489e+02
8.554999999999999716e+00,8.648311200323831827e+02
8.558999999999999275e+00,8.610235061130822487e+02
8.563000000000000611e+00,8.603371498277967930e+02
8.566000000000000725e+00,8.606023825074795468e+02
8.570000000000000284e+00,8.629793371918698313e+02
8.573999999999999844e+00,8.674146405671941693e+02
8.577999999999999403e+00,8.742581934654714360e+02
8.582000000000000739e+00,8.823046631394569204e+02
8.586000000000000298e+00,8.928223942679202310e+02
8.589999999999999858e+00,9.076274950010715656e+02
8.593999999999999417e+00,9.271840661767506617e+02
8.598000000000000753e+00,9.470965007159661582e+02
8.602000000000000313e+00,9.637791324894210447e+02
8.605000000000000426e+00,9.801534059131078038e+02
8.608999999999999986e+00,9.974384469404054698e+02
8.612999999999999545e+00,1.012809087805034778e+03
8.617000000000000881e+00,1.027489655343661298e+03
8.621000000000000441e+00,1.043695870349204597e+03
8.625000000000000000e+00,1.064673172171327906e+03
8.628999999999999559e+00,1.079009329421933671e+03
8.632999999999999119e+00,1.084707654570343266e+03
8.637000000000000455e+00,1.085900679695385634e+03
8.641000000000000014e+00,1.084564091907831653e+03
8.644999999999999574e+00,1.085822127505518438e+03
8.647999999999999687e+00,1.094377590775317231e+03
8.651999999999999247e+00,1.106549078626769187e+03
8.656000000000000583e+00,1.119932131643008915e+03
8.660000000000000142e+00,1.132786207167398970e+03
8.663999999999999702e+00,1.140820234727687421e+03
8.667999999999999261e+00,1.154650719951046540e+03
8.672000000000000597e+00,1.165512239243069871e+03
8.676000000000000156e+00,1.168252153066747042e+03
8.679999999999999716e+00,1.163268179416038038e+03
8.683999999999999275e+00,1.158146791126200696e+03
8.688000000000000611e+00,1.157920178984301174e+03
8.691000000000000725e+00,1.171920345725206744e+03
8.695000000000000284e+00,1.189218252964078147e+03
8.698999999999999844e+00,1.203209557600159087e+03
8.702999999999999403e+00,1.218932435693571506e+03
8.707000000000000739e+00,1.241423208820299806e+03
8.711000000000000298e+00,1.262893165096192206e+03
8.714999999999999858e+00,1.271531971517149941e+03
8.718999999999999417e+00,1.272366927493286539e+03
8.723000000000000753e+00,1.277605867103355877e+03
8.727000000000000313e+00,1.283464618288625161e+03
8.730000000000000426e+00,1.286464077207881246e+03
8.733999999999999986e+00,1.292432103324236095e+03
8.737999999999999545e+00,1.296783531596764760e+03
8.742000000000000881e+00,1.301361319255466015e+03
8.746000000000000441e+00,1.300114261105081823e+03
8.750000000000000000e+00,1.296791640033713293e+03
8.753999999999999559e+00,1.304188771968232231e+03
8.757999999999999119e+00,1.309206551777100003e+03
8.762000000000000455e+00,1.312436070922565705e+03
8.766000000000000014e+00,1.313559235478248183e+03
8.769999999999999574e+00,1.310845938734705214e+03
8.772999999999999687e+00,1.303267730800402887e+03
8.776999999999999247e+00,1.295954483960411835e+03
8.781000000000000583e+00,1.293032981719849204e+03
8.785000000000000142e+00,1.293020057259858504e+03
8.788999999999999702e+00,1.298361025911885918e+03
8.792999999999999261e+00,1.304250721650064406e+03
8.797000000000000597e+00,1.308263719034859605e+03
8.801000000000000156e+00,1.304241861197806884e+03
8.804999999999999716e+00,1.302092933592906093e+03
8.808999999999999275e+00,1.302774499429380512e+03
8.813000000000000611e+00,1.298701657695038648e+03
8.816000000000000725e+00,1.294652564034861371e+03
8.820000000000000284e+00,1.293593835763613470e+03
8.823999999999999844e+00,1.295654649677877160e+03
8.827999999999999403e+00,1.303776101507824706e+03
8.832000000000000739e+00,1.314056003418279033e+03
8.836000000000000298e+00,1.325428248955350909e+03
8.839999999999999858e+00,1.334320081047148506e+03
8.843999999999999417e+00,1.339703986973877591e+03
8.848000000000000753e+00,1.348416089339789096e+03
8.852000000000000313e+00,1.358803467995908022e+03
8.855000000000000426e+00,1.367049413035613043e+03
8.858999999999999986e+00,1.366545658024302384e+03
8.862999999999999545e+00,1.369360944560505914e+03
8.867000000000000881e+00,1.379359230449326333e+03
8.871000000000000441e+00,1.386878851297584333e+03
8.875000000000000000e+00,1.392966912530179115e+03
8.878999999999999559e+00,1.397384782582642856e+03
8.882999999999999119e+00,1.405150628739875629e+03
8.887000000000000455e+00,1.417119098443115490e+03
8.891000000000000014e+00,1.432345324763697818e+03
8.894999999999999574e+00,1.446025782576257598e+03
8.897999999999999687e+00,1.453187609226005861e+03
8.901999999999999247e+00,1.458199381598848049e+03
8.906000000000000583e+00,1.464568362980011216e+03
8.910000000000000142e+00,1.473956630189380121e+03
8.913999999999999702e+00,1.486048241399867265e+03
8.917999999999999261e+00,1.495203278194525410e+03
8.922000000000000597e+00,1.504773006180093716e+03
8.926000000000000156e+00,1.509873262064475739e+03
8.929999999999999716e+00,1.512792492164319583e+03
8.933999999999999275e+00,1.514982628102829722e+03
8.938000000000000611e+00,1.517660036985997294e+03
8.941000000000000725e+00,1.523212293455320605e+03
8.945000000000000284e+00,1.528905729397222331e+03
8.948999999999999844e+00,1.533910328165277406e+03
8.952999999999999403e+00,1.538487505923624667e+03
8.957000000000000739e+00,1.540591684026090888e+03
8.961000000000000298e+00,1.541937125883612225e+03
8.964999999999999858e+00,1.539791548225012320e+03
8.968999999999999417e+00,1.534995362640552230e+03
8.973000000000000753e+00,1.527188724875372600e+03
8.977000000000000313e+00,1.517357628662054140e+03
8.980000000000000426e+00,1.508338619670407070e+03
8.983999999999999986e+00,1.496885932392512586e+03
8.987999999999999545e+00,1.485223994682006605e+03
8.992000000000000881e+00,1.473008947365341328e+03
8.996000000000000441e+00,1.463459746644026382e+03
9.000000000000000000e+00,1.457324121078817370e+03
9.003999999999999559e+00,1.448786110060331794e+03
9.007999999999999119e+00,1.435948888760885438e+03
9.012000000000000455e+00,1.419776057730492084e+03
9.016000000000000014e+00,1.403887936819094193e+03
9.019999999999999574e+00,1.388014828175406137e+03
9.022999999999999687e+00,1.371421144546368851e+03
9.026999999999999247e+00,1.355681947675927859e+03
9.031000000000000583e+00,1.340917220609876267e+03
9.035000000000000142e+00,1.328827703313470693e+03
9.038999999999999702e+00,1.321504259366485257e+03
9.042999999999999261e+00,1.315660662704838387e+03
9.047000000000000597e+00,1.307344704864296773e+03
9.051000000000000156e+00,1.299070008516466032e+03
9.054999999999999716e+00,1.292188098202222818e+03
9.058999999999999275e+00,1.286853863545146169e+03
9.063000000000000611e+00,1.290097339256756413e+03
9.066000000000000725e+00,1.299818518213651259e+03
9.070000000000000284e+00,1.313786995933088747e+03
9.073999999999999844e+00,1.330554206540517043e+03
9.077999999999999403e+00,1.345624259999779497e+03
9.082000000000000739e+00,1.354696547697017195e+03
9.086000000000000298e+00,1.360533179101865244e+03
9.089999999999999858e+00,1.363740215499540000e+03
9.093999999999999417e+00,1.364681196765774075e+03
9.098000000000000753e+00,1.367368227372135379e+03
9.102000000000000313e+00,1.371742014841292530e+03
9.105000000000000426e+00,1.377781979919772084e+03
9.108999999999999986e+00,1.383492869997390699e+03
9.112999999999999545e+00,1.391061455419838921e+03
9.117000000000000881e+00,1.405973398333698469e+03
9.121000000000000441e+00,1.426701825496915717e+03
9.125000000000000000e+00,1.448776364355195938e+03
9.128999999999999559e+00,1.465534768724905689e+03
9.132999999999999119e+00,1.477869721724465535e+03
9.137000000000000455e+00,1.489636761469989551e+03
9.141000000000000014e+00,1.496795477160334258e+03
9.144999999999999574e+00,1.500594958382221876e+03
9.147999999999999687e+00,1.498680034270548276e+03
9.151999999999999247e+00,1.491800250558575271e+03
9.156000000000000583e+00,1.486480789241802313e+03
9.160000000000000142e+00,1.493581223918690057e+03
9.163999999999999702e+00,1.502573772593020522e+03
9.167999999999999261e+00,1.506342393251046133e+03
9.172000000000000597e+00,1.508604606372501166e+03
9.176000000000000156e+00,1.507656727536900235e+03
9.179999999999999716e+00,1.501441481497243558e+03
9.183999999999999275e+00,1.493162192636003965e+03
9.188000000000000611e+00,1.481645309915337521e+03
9.191000000000000725e+00,1.477746445303498604e+03
9.195000000000000284e+00,1.477350856787447128e+03
9.198999999999999844e+00,1.475196564697171198e+03
9.202999999999999403e+00,1.473946720161938629e+03
9.207000000000000739e+00,1.470828911887562299e+03
9.211000000000000298e+00,1.467064629514517492e+03
9.214999999999999858e+00,1.460385477011038347e+03
9.218999999999999417e+00,1.453563287706308301e+03
9.223000000000000753e+00,1.451504173420815960e+03
9.227000000000000313e+00,1.444930583562844049e+03
9.230000000000000426e+00,1.428743445373429495e+03
9.233999999999999986e+00,1.409645789521894585e+03
9.237999999999999545e+00,1.397633338520823145e+03
9.242000000000000881e+00,1.395375177611948402e+03
9.246000000000000441e+00,1.394231842968947603e+03
9.250000000000000000e+00,1.390897172639711243e+03
9.253999999999999559e+00,1.383553453148475228e+03
9.257999999999999119e+00,1.374786263692457624e+03
9.262000000000000455e+00,1.361979339187392043e+03
9.266000000000000014e+00,1.344433626172252616e+03
9.269999999999999574e+00,1.328401859184713203e+03
9.272999999999999687e+00,1.316647249575960359e+03
9.276999999999999247e+00,1.307782671822032626e+03
9.281000000000000583e+00,1.303028024881330566e+03
9.285000000000000142e+00,1.300046227273728391e+03
9.288999999999999702e+00,1.296585628911463573e+03
9.292999999999999261e+00,1.288579450072615145e+03
9.297000000000000597e+00,1.280791904126956979e+03
9.301000000000000156e+00,1.272884641044495311e+03
9.304999999999999716e+00,1.265597306240769058e+03
9.308999999999999275e+00,1.260097773737480338e+03
9.313000000000000611e+00,1.250414776316415100e+03
9.316000000000000725e+00,1.237733082421626477e+03
9.320000000000000284e+00,1.225752691148851454e+03
9.323999999999999844e+00,1.217195119261072705e+03
9.327999999999999403e+00,1.208554308249402538e+03
9.332000000000000739e+00,1.198567721194091973e+03
9.336000000000000298e+00,1.187201743341654947e+03
9.339999999999999858e+00,1.175715411674024153e+03
9.343999999999999417e+00,1.164760835773223562e+03
9.348000000000000753e+00,1.155247610828248526e+03
9.352000000000000313e+00,1.146041589118202864e+03
9.355000000000000426e+00,1.134098642545018492e+03
9.358999999999999986e+00,1.122691126647873489e+03
9.362999999999999545e+00,1.109938562438220060e+03
9.367000000000000881e+00,1.096864189309032554e+03
9.371000000000000441e+00,1.087268300801116993e+03
