00.012,1633.686
00.027,1664.472
00.043,1653.491
00.059,1652.009
00.074,1601.452
00.090,1569.960
00.105,1519.403
00.121,1540.656
00.137,1653.491
00.152,1823.452
00.168,2023.456
00.184,2145.049
00.199,2139.929
00.215,1972.158
00.230,1749.452
00.246,1456.417
00.262,1194.875
00.277,978.770
00.293,819.790
00.309,701.094
00.324,695.975
00.340,758.960
00.355,879.105
00.371,961.895
00.387,1104.034
00.402,1189.014
00.418,1286.457
00.434,1353.114
00.449,1413.203
00.465,1455.676
00.480,1452.005
00.496,1424.183
00.512,1473.258
00.527,1482.790
00.543,1520.144
00.559,1468.879
00.574,1465.208
00.590,1455.676
00.605,1493.770
00.621,1519.403
00.637,1646.149
00.652,1740.661
00.668,1852.755
00.684,1878.387
00.699,1876.939
00.715,1783.168
00.730,1702.566
00.746,1550.929
00.762,1472.517
00.777,1333.342
00.793,1208.786
00.809,1080.591
00.824,887.188
00.840,687.184
00.855,554.577
00.871,410.249
00.887,372.154
00.902,358.244
00.918,424.160
00.934,538.477
00.949,802.916
00.965,1085.711
00.980,1340.651
00.996,1530.417
01.012,1578.010
01.027,1531.865
01.043,1425.631
01.059,1213.905
01.074,1055.667
01.090,926.731
01.105,861.523
01.121,897.428
01.137,1057.149
01.152,1207.337
01.168,1374.367
01.184,1514.283
01.199,1609.536
01.215,1684.243
01.230,1715.029
01.246,1646.890
01.262,1563.358
01.277,1455.676
01.293,1368.506
01.309,1287.164
01.324,1235.159
01.340,1279.855
01.355,1273.253
01.371,1336.273
01.387,1357.526
01.402,1410.272
01.418,1481.308
01.434,1512.094
01.449,1542.845
01.465,1547.999
01.480,1571.442
01.496,1549.447
01.512,1547.258
01.527,1444.696
01.543,1341.392
01.559,1233.710
01.574,1167.761
01.590,1143.577
01.605,1161.900
01.621,1315.760
01.637,1479.119
01.652,1646.890
01.668,1790.477
01.684,1780.945
01.699,1730.388
01.715,1578.751
01.730,1430.785
01.746,1293.025
01.762,1189.755
01.777,1157.521
01.793,1144.318
01.809,1137.009
01.824,1180.223
01.840,1260.791
01.855,1343.582
01.871,1429.303
01.887,1531.124
01.902,1550.929
01.918,1580.233
01.934,1591.213
01.949,1565.581
01.965,1554.567
01.980,1531.124
01.996,1458.606
02.012,1447.626
02.027,1429.303
02.043,1418.322
02.059,1451.297
02.074,1445.437
02.090,1531.124
02.105,1597.074
02.121,1645.408
02.137,1712.098
02.152,1733.318
02.168,1753.831
02.184,1722.338
02.199,1749.452
02.215,1733.318
02.230,1676.934
02.246,1652.009
02.262,1613.915
02.277,1575.820
02.293,1526.004
02.309,1476.188
02.324,1415.392
02.340,1357.526
02.355,1298.885
02.371,1315.760
02.387,1358.974
02.402,1378.746
02.418,1419.771
02.434,1503.303
02.449,1539.915
02.465,1602.193
02.480,1567.770
02.496,1469.587
02.512,1290.094
02.527,1105.482
02.543,900.358
02.559,748.721
02.574,689.373
02.590,731.139
02.605,821.980
02.621,923.801
02.637,1020.502
02.652,1155.298
02.668,1286.457
02.684,1400.740
02.699,1528.935
02.715,1597.074
02.730,1634.427
02.746,1662.990
02.762,1610.984
02.777,1567.029
02.793,1535.536
02.809,1489.392
02.824,1412.462
02.840,1391.208
02.855,1409.531
02.871,1429.303
02.887,1452.746
02.902,1464.467
02.918,1487.910
02.934,1463.726
02.949,1459.347
02.965,1459.347
02.980,1461.537
02.996,1499.631
03.012,1480.601
03.027,1508.422
03.043,1556.049
03.059,1555.308
03.074,1528.194
03.090,1526.004
03.105,1576.561
03.121,1698.895
03.137,1890.109
03.152,2020.526
03.168,2109.885
03.184,2107.695
03.199,1988.999
03.215,1835.914
03.230,1580.940
03.246,1386.089
03.262,1216.836
03.277,1151.661
03.293,1134.079
03.309,1133.338
03.324,1135.527
03.340,1190.463
03.355,1241.019
03.371,1289.387
03.387,1337.014
03.402,1361.164
03.418,1318.691
03.434,1310.607
03.449,1241.760
03.465,1185.343
03.480,1123.065
03.496,1076.920
03.512,1127.477
03.527,1175.811
03.543,1211.716
03.559,1304.039
03.574,1324.551
03.590,1395.621
03.605,1425.631
03.621,1434.423
03.637,1452.005
03.652,1449.815
03.668,1485.720
03.684,1490.840
03.699,1486.461
03.715,1450.556
03.730,1418.322
03.746,1411.721
03.762,1416.133
03.777,1418.322
03.793,1419.063
03.809,1416.133
03.824,1389.760
03.840,1352.373
03.855,1317.209
03.871,1356.785
03.887,1470.328
03.902,1608.054
03.918,1820.521
03.934,1999.272
03.949,2112.815
03.965,2093.785
03.980,1924.532
03.996,1711.357
04.012,1476.929
04.027,1206.596
04.043,977.288
04.059,841.010
04.074,769.974
04.090,769.974
04.105,857.885
04.121,987.561
04.137,1125.995
04.152,1236.641
04.168,1342.133
04.184,1368.506
04.199,1378.746
04.215,1374.367
04.230,1356.044
04.246,1328.930
04.262,1317.209
04.277,1306.228
04.293,1264.462
04.309,1298.178
04.324,1294.507
04.340,1334.083
04.355,1383.899
04.371,1359.715
04.387,1383.158
04.402,1422.701
04.418,1413.910
04.434,1438.094
04.449,1477.670
04.465,1542.138
04.480,1536.985
04.496,1583.870
04.512,1564.099
04.527,1520.885
04.543,1448.367
04.559,1368.506
04.574,1338.462
04.590,1381.676
04.605,1499.631
04.621,1646.890
04.637,1775.084
04.652,1828.571
04.668,1871.785
04.684,1791.959
04.699,1687.915
04.715,1575.820
04.730,1468.879
04.746,1405.860
04.762,1342.874
04.777,1336.273
04.793,1319.398
04.809,1295.955
04.824,1306.969
04.840,1262.273
04.855,1300.367
04.871,1314.278
04.887,1366.317
04.902,1427.113
04.918,1439.576
04.934,1434.423
04.949,1425.631
04.965,1372.885
04.980,1349.442
04.996,1337.721
05.012,1376.557
05.027,1384.607
05.043,1428.562
05.059,1445.437
05.074,1448.367
05.090,1453.487
05.105,1440.283
05.121,1448.367
05.137,1452.746
05.152,1430.044
05.168,1450.556
05.184,1453.487
05.199,1413.910
05.215,1452.746
05.230,1439.576
05.246,1419.063
05.262,1424.924
05.277,1406.601
05.293,1364.835
05.309,1298.178
05.324,1276.925
05.340,1243.950
05.355,1264.462
05.371,1280.596
05.387,1367.024
05.402,1476.188
05.418,1559.720
05.434,1646.890
05.449,1610.984
05.465,1570.701
05.480,1450.556
05.496,1271.064
05.512,1145.800
05.527,1001.472
05.543,942.124
05.559,923.801
05.574,975.840
05.590,1071.800
05.605,1174.362
05.621,1281.303
05.637,1405.119
05.652,1441.024
05.668,1476.188
05.684,1517.213
05.699,1451.297
05.715,1419.063
05.730,1389.019
05.746,1387.537
05.762,1406.601
05.777,1397.810
05.793,1430.785
05.809,1454.935
05.824,1484.979
05.840,1495.960
05.855,1487.169
05.871,1476.929
05.887,1451.297
05.902,1498.890
05.918,1490.099
05.934,1520.885
05.949,1497.442
05.965,1554.567
05.980,1545.776
05.996,1547.999
06.012,1498.890
06.027,1487.169
06.043,1499.631
06.059,1587.542
06.074,1757.502
06.090,1947.267
06.105,2126.726
06.121,2182.402
06.137,2104.024
06.152,1853.496
06.168,1566.288
06.184,1317.950
06.199,1082.040
06.215,980.218
06.230,904.029
06.246,897.428
06.262,933.333
06.277,958.965
06.293,993.422
06.309,1040.307
06.324,1111.343
06.340,1232.969
06.355,1297.437
06.371,1330.412
06.387,1370.696
06.402,1405.860
06.418,1372.885
06.434,1372.178
06.449,1386.089
06.465,1379.487
06.480,1358.233
06.496,1356.044
06.512,1369.955
06.527,1370.696
06.543,1419.063
06.559,1408.790
06.574,1473.258
06.590,1487.169
06.605,1504.044
06.621,1497.442
06.637,1490.099
06.652,1508.422
06.668,1507.681
06.684,1517.954
06.699,1547.258
06.715,1560.427
06.730,1576.561
06.746,1572.149
06.762,1581.681
06.777,1556.790
06.793,1522.333
06.809,1470.328
06.824,1394.880
06.840,1359.715
06.855,1286.457
06.871,1273.994
06.887,1292.317
06.902,1390.467
06.918,1448.367
06.934,1516.472
06.949,1573.631
06.965,1601.452
06.980,1536.985
06.996,1405.860
07.012,1306.969
07.027,1111.343
07.043,967.756
07.059,898.910
07.074,866.676
07.090,913.561
07.105,1053.477
07.121,1183.895
07.137,1346.512
07.152,1441.765
07.168,1506.233
07.184,1528.194
07.199,1493.029
07.215,1440.283
07.230,1378.039
07.246,1334.083
07.262,1295.955
07.277,1320.139
07.293,1295.248
07.309,1294.507
07.324,1322.328
07.340,1326.000
07.355,1361.905
07.371,1382.417
07.387,1404.412
07.402,1465.949
07.418,1458.606
07.434,1494.511
07.449,1495.252
07.465,1547.258
07.480,1524.556
07.496,1553.118
07.512,1506.233
07.527,1424.183
07.543,1353.855
07.559,1338.462
07.574,1394.139
07.590,1493.029
07.605,1625.636
07.621,1776.566
07.637,1850.566
07.652,1822.711
07.668,1802.198
07.684,1678.382
07.699,1576.561
07.715,1461.537
07.730,1367.024
07.746,1323.069
07.762,1236.641
07.777,1228.557
07.793,1164.830
07.809,1114.273
07.824,1106.964
07.840,1118.686
07.855,1164.830
07.871,1160.452
07.887,1208.786
07.902,1293.766
07.918,1325.292
07.934,1354.596
07.949,1369.955
07.965,1391.208
07.980,1361.905
07.996,1404.412
08.012,1391.208
08.027,1405.119
08.043,1454.228
08.059,1438.835
08.074,1448.367
08.090,1491.581
08.105,1456.417
08.121,1481.308
08.137,1436.646
08.152,1471.069
08.168,1451.297
08.184,1464.467
08.199,1434.423
08.215,1457.865
08.230,1427.113
08.246,1439.576
08.262,1435.905
08.277,1472.517
08.293,1438.835
08.309,1391.949
08.324,1353.855
08.340,1382.417
08.355,1397.069
08.371,1517.213
08.387,1670.332
08.402,1848.343
08.418,2002.203
08.434,2073.980
08.449,1993.412
08.465,1845.412
08.480,1624.895
08.496,1388.278
08.512,1168.502
08.527,969.979
08.543,895.979
08.559,934.815
08.574,969.979
08.590,1064.458
08.605,1139.939
08.621,1183.154
08.637,1242.502
08.652,1264.462
08.668,1283.526
08.684,1278.373
08.699,1292.317
08.715,1293.766
08.730,1275.443
08.746,1302.557
08.762,1309.159
08.777,1325.292
08.793,1356.044
08.809,1361.164
08.824,1366.317
08.840,1392.690
08.855,1419.771
08.871,1430.785
08.887,1443.955
08.902,1437.353
08.918,1467.397
08.934,1468.138
08.949,1495.252
08.965,1548.706
08.980,1575.079
08.996,1600.745
09.012,1590.472
09.027,1584.611
09.043,1538.467
09.059,1509.904
09.074,1421.994
09.090,1364.094
09.105,1356.044
09.121,1492.322
09.137,1646.890
09.152,1839.552
09.168,1916.482
09.184,1876.198
09.199,1726.750
09.215,1532.606
09.230,1326.000
09.246,1175.811
09.262,1118.686
09.277,1066.681
09.293,1090.831
09.309,1065.199
09.324,1059.338
09.340,1052.736
09.355,1024.915
09.371,1022.725
09.387,1062.268
09.402,1149.438
09.418,1208.786
09.434,1279.114
09.449,1356.785
09.465,1378.039
09.480,1424.183
09.496,1408.049
09.512,1408.790
09.527,1448.367
09.543,1406.601
09.559,1441.024
09.574,1428.562
09.590,1419.063
09.605,1438.094
09.621,1432.974
09.637,1459.347
09.652,1509.904
09.668,1534.054
09.684,1545.776
09.699,1536.277
09.715,1480.601
09.730,1463.726
09.746,1480.601
09.762,1468.138
09.777,1524.556
09.793,1569.219
09.809,1629.308
09.824,1670.332
09.840,1654.199
09.855,1641.029
09.871,1551.636
09.887,1481.308
09.902,1388.278
09.918,1334.791
09.934,1326.741
09.949,1381.676
09.965,1518.695
09.980,1600.004
09.996,1583.870
10.012,1537.726
10.027,1369.955
10.043,1183.895
10.059,1030.034
10.074,854.954
10.090,782.403
10.105,763.373
10.121,842.492
10.137,900.358
10.152,1028.586
10.168,1151.661
10.184,1252.000
10.199,1295.248
10.215,1374.367
10.230,1399.999
10.246,1389.760
10.262,1373.626
10.277,1421.253
10.293,1389.019
10.309,1414.651
10.324,1413.910
10.340,1419.771
10.355,1420.512
10.371,1430.044
10.387,1405.119
10.402,1428.562
10.418,1426.372
10.434,1379.487
10.449,1383.158
10.465,1363.387
10.480,1372.178
10.496,1422.701
10.512,1454.228
10.527,1515.024
10.543,1532.606
10.559,1546.517
10.574,1560.427
10.590,1546.517
10.605,1520.144
10.621,1567.029
10.637,1643.218
10.652,1775.825
10.668,1968.487
10.684,2157.511
10.699,2211.740
10.715,2169.233
10.730,1968.487
10.746,1707.686
10.762,1497.442
10.777,1330.412
10.793,1216.128
10.809,1172.880
10.824,1156.039
10.840,1123.065
10.855,1137.009
10.871,1101.104
10.887,1059.338
10.902,1054.959
10.918,1063.009
10.934,1147.989
10.949,1238.830
10.965,1274.735
10.980,1361.905
10.996,1345.064
11.012,1342.133
11.027,1268.134
11.043,1250.552
11.059,1276.184
11.074,1296.696
11.090,1285.716
11.105,1281.303
11.121,1356.785
11.137,1394.139
11.152,1424.924
11.168,1421.994
11.184,1422.701
11.199,1406.601
11.215,1417.581
11.230,1416.133
11.246,1436.646
11.262,1479.119
11.277,1450.556
11.293,1485.720
11.309,1453.487
11.324,1484.238
11.340,1520.885
11.355,1506.233
11.371,1500.372
11.387,1471.069
11.402,1392.690
11.418,1345.805
11.434,1323.069
11.449,1388.278
11.465,1455.676
11.480,1522.333
11.496,1654.940
11.512,1704.015
11.527,1706.945
11.543,1614.656
11.559,1505.492
11.574,1320.880
11.590,1113.566
11.605,911.372
11.621,824.169
11.637,783.885
11.652,810.999
11.668,898.910
11.684,989.751
11.699,1119.427
11.715,1284.975
11.730,1369.955
11.746,1468.879
11.762,1528.194
11.777,1536.277
11.793,1512.835
11.809,1464.467
11.824,1420.512
11.840,1367.024
11.855,1353.855
11.871,1337.014
11.887,1375.816
11.902,1393.398
11.918,1419.771
11.934,1481.308
11.949,1471.810
11.965,1498.890
11.980,1490.099
11.996,1531.865
12.012,1558.238
12.027,1590.472
12.043,1632.979
12.059,1600.745
12.074,1633.686
12.090,1577.302
12.105,1548.706
12.121,1501.113
12.137,1431.492
12.152,1402.189
12.168,1341.392
12.184,1340.651
12.199,1386.830
12.215,1550.929
12.230,1761.914
12.246,1954.576
12.262,2084.253
12.277,2046.899
12.293,1939.183
12.309,1805.128
12.324,1619.034
12.340,1486.461
12.355,1334.791
12.371,1241.760
12.387,1150.179
12.402,1073.990
12.418,1017.572
12.434,939.194
12.449,908.442
12.465,880.587
12.480,970.686
12.496,1073.990
12.512,1122.357
12.527,1216.836
12.543,1245.432
12.559,1237.348
12.574,1227.109
12.590,1219.766
12.605,1217.577
12.621,1263.014
12.637,1242.502
12.652,1276.925
12.668,1331.860
12.684,1356.785
12.699,1380.228
12.715,1419.063
12.730,1442.506
12.746,1488.651
12.762,1507.681
12.777,1501.821
12.793,1528.935
12.809,1512.835
12.824,1524.556
12.840,1482.790
12.855,1512.835
12.871,1498.890
12.887,1523.815
12.902,1539.208
12.918,1510.612
12.934,1509.163
12.949,1471.069
12.965,1409.531
12.980,1430.785
12.996,1515.024
13.012,1666.661
13.027,1836.621
13.043,1991.930
13.059,2032.955
13.074,1973.640
13.090,1799.268
13.105,1558.979
13.121,1221.248
13.137,916.492
13.152,717.228
13.168,575.830
13.184,564.850
13.199,660.069
13.215,775.094
13.230,942.124
13.246,1111.343
13.262,1211.716
13.277,1292.317
13.293,1364.094
13.309,1396.328
13.324,1412.462
13.340,1448.367
13.355,1432.974
13.371,1397.069
13.387,1416.840
13.402,1372.885
13.418,1424.183
13.434,1427.854
13.449,1442.506
13.465,1458.606
13.480,1487.169
13.496,1449.815
13.512,1482.790
13.527,1442.506
13.543,1446.885
13.559,1475.447
13.574,1487.910
13.590,1471.810
13.605,1528.194
13.621,1554.567
13.637,1607.313
13.652,1639.547
13.668,1686.432
13.684,1679.864
13.699,1631.497
13.715,1635.909
13.730,1630.756
13.746,1723.820
13.762,1814.661
13.777,1954.576
13.793,1971.417
13.809,1921.601
13.824,1750.900
13.840,1519.403
13.855,1293.025
13.871,1147.248
13.887,1016.124
13.902,977.288
13.918,942.865
13.934,974.358
13.949,979.477
13.965,1024.174
13.980,1062.268
13.996,1086.452
14.012,1103.293
14.027,1160.452
14.043,1191.204
14.059,1268.875
14.074,1348.735
14.090,1410.272
14.105,1421.253
14.121,1427.854
14.137,1433.715
14.152,1394.139
14.168,1367.024
14.184,1334.083
14.199,1331.153
14.215,1356.785
14.230,1338.462
14.246,1377.298
14.262,1380.228
14.277,1446.885
14.293,1441.765
14.309,1443.955
14.324,1492.322
14.340,1479.860
14.355,1487.169
14.371,1515.024
14.387,1497.442
14.402,1453.487
14.418,1442.506
14.434,1476.188
14.449,1453.487
14.465,1479.860
14.480,1512.094
14.496,1523.815
14.512,1506.974
14.527,1465.949
14.543,1369.248
14.559,1372.178
14.574,1334.083
14.590,1385.348
14.605,1421.253
14.621,1486.461
14.637,1545.776
14.652,1612.466
14.668,1558.238
14.684,1498.183
14.699,1383.899
14.715,1268.134
14.730,1117.945
14.746,956.776
14.762,912.820
14.777,871.796
14.793,935.522
14.809,990.492
14.824,1123.065
14.840,1257.153
14.855,1312.089
14.871,1393.398
14.887,1457.158
14.902,1452.746
14.918,1399.999
14.934,1398.551
14.949,1356.044
14.965,1349.442
14.980,1351.665
14.996,1321.621
15.012,1353.855
15.027,1375.108
15.043,1373.626
15.059,1392.690
15.074,1461.537
15.090,1483.531
15.105,1493.029
15.121,1479.860
15.137,1490.099
15.152,1489.392
15.168,1533.347
15.184,1524.556
15.199,1592.661
15.215,1585.352
15.230,1583.163
15.246,1534.054
15.262,1499.631
15.277,1506.974
15.293,1505.492
15.309,1574.372
15.324,1719.407
15.340,1886.437
15.355,2005.133
15.371,2005.874
15.387,1892.298
15.402,1680.572
15.418,1410.980
15.434,1202.184
15.449,1003.661
15.465,937.004
15.480,919.422
15.496,989.751
15.512,1121.616
15.527,1196.323
15.543,1235.159
15.559,1221.248
15.574,1227.850
15.590,1234.418
15.605,1273.253
15.621,1364.094
15.637,1423.442
15.652,1440.283
15.668,1472.517
15.684,1422.701
15.699,1403.671
15.715,1355.303
15.730,1338.462
15.746,1342.133
15.762,1313.537
15.777,1340.651
15.793,1328.223
15.809,1386.830
15.824,1376.557
15.840,1436.646
15.855,1427.113
15.871,1446.885
15.887,1448.367
15.902,1516.472
15.918,1522.333
15.934,1545.068
15.949,1569.960
15.965,1617.586
15.980,1641.029
15.996,1697.447
16.012,1769.223
16.027,1823.452
16.043,1820.521
16.059,1761.914
16.074,1662.990
16.090,1489.392
16.105,1379.487
16.121,1281.303
16.137,1265.944
16.152,1299.626
16.168,1329.671
16.184,1416.133
16.199,1449.815
16.215,1465.949
16.230,1391.949
16.246,1208.045
16.262,1052.736
16.277,878.397
16.293,687.184
16.309,602.203
16.324,589.741
16.340,659.328
16.355,818.308
16.371,955.327
16.387,1079.850
16.402,1248.362
16.418,1337.721
16.434,1453.487
16.449,1501.821
16.465,1493.029
16.480,1500.372
16.496,1486.461
16.512,1455.676
16.527,1435.164
16.543,1390.467
16.559,1404.412
16.574,1453.487
16.590,1475.447
16.605,1502.562
16.621,1531.124
16.637,1534.054
16.652,1555.308
16.668,1594.143
16.684,1555.308
16.699,1533.347
16.715,1558.238
16.730,1508.422
16.746,1517.954
16.762,1526.745
16.777,1460.088
16.793,1436.646
16.809,1372.885
16.824,1415.392
16.840,1547.258
16.855,1778.014
16.871,2081.322
16.887,2390.491
16.902,2548.730
16.918,2482.039
16.934,2276.915
16.949,1923.083
16.965,1569.960
16.980,1243.209
16.996,1005.851
17.012,876.174
17.027,824.910
17.043,827.099
17.059,881.328
17.074,937.745
17.090,995.611
17.105,1086.452
17.121,1182.413
17.137,1254.930
17.152,1353.114
17.168,1373.626
17.184,1380.228
17.199,1359.715
17.215,1326.000
17.230,1289.387
17.246,1252.000
17.262,1232.969
17.277,1282.785
17.293,1298.885
17.309,1307.677
17.324,1367.765
17.340,1373.626
17.355,1362.646
17.371,1418.322
17.387,1419.771
17.402,1438.094
17.418,1449.074
17.434,1404.412
17.449,1399.258
17.465,1402.930
17.480,1381.676
17.496,1378.039
17.512,1402.189
17.527,1413.203
17.543,1414.651
17.559,1484.238
17.574,1534.054
17.590,1581.681
17.605,1632.979
17.621,1605.865
17.637,1570.701
17.652,1533.347
17.668,1518.695
17.684,1564.099
17.699,1654.940
17.715,1769.964
17.730,1880.577
17.746,1868.148
17.762,1806.610
17.777,1600.745
17.793,1368.506
17.809,1077.661
17.824,810.258
17.840,621.234
17.855,529.686
17.871,600.721
17.887,735.518
17.902,864.453
17.918,1072.541
17.934,1211.716
17.949,1250.552
17.965,1306.969
17.980,1331.153
17.996,1363.387
18.012,1350.924
18.027,1358.974
18.043,1396.328
18.059,1427.113
18.074,1442.506
18.090,1463.019
18.105,1471.069
18.121,1450.556
18.137,1476.188
18.152,1500.372
18.168,1520.885
18.184,1479.119
18.199,1513.542
18.215,1507.681
18.230,1481.308
18.246,1504.044
18.262,1503.303
18.277,1506.233
18.293,1511.353
18.309,1513.542
18.324,1487.169
18.340,1449.074
18.355,1454.935
18.371,1418.322
18.387,1438.835
18.402,1438.835
18.418,1568.511
18.434,1769.964
18.449,2008.064
18.465,2134.069
18.480,2161.183
18.496,2056.397
18.512,1810.248
18.527,1515.765
18.543,1265.203
18.559,1038.825
18.574,931.885
18.590,958.258
18.605,942.124
18.621,987.561
18.637,1027.845
18.652,1062.268
18.668,1119.427
18.684,1156.780
18.699,1241.019
18.715,1303.298
18.730,1346.512
18.746,1383.899
18.762,1388.278
18.777,1363.387
18.793,1392.690
18.809,1372.178
18.824,1355.303
18.840,1304.746
18.855,1325.292
18.871,1359.715
18.887,1347.994
18.902,1395.621
18.918,1398.551
18.934,1413.910
18.949,1447.626
18.965,1493.770
18.980,1531.124
18.996,1508.422
19.012,1489.392
19.027,1472.517
19.043,1432.233
19.059,1398.551
19.074,1385.348
19.090,1400.740
19.105,1393.398
19.121,1422.701
19.137,1447.626
19.152,1461.537
19.168,1500.372
19.184,1524.556
19.199,1486.461
19.215,1445.437
19.230,1421.994
19.246,1424.183
19.262,1424.924
19.277,1443.955
19.293,1474.740
19.309,1523.815
19.324,1527.486
19.340,1479.860
19.355,1442.506
19.371,1379.487
19.387,1246.139
19.402,1136.268
19.418,1072.541
19.434,986.079
19.449,939.194
19.465,892.308
19.480,950.915
19.496,975.840
19.512,1117.204
19.527,1205.114
19.543,1323.810
19.559,1434.423
19.574,1495.960
19.590,1510.612
19.605,1511.353
19.621,1468.879
19.637,1419.771
19.652,1361.164
19.668,1353.114
19.684,1340.651
19.699,1337.014
19.715,1378.039
19.730,1401.481
19.746,1443.214
19.762,1490.840
19.777,1510.612
19.793,1548.706
19.809,1548.706
19.824,1536.277
19.840,1487.910
19.855,1516.472
19.871,1501.113
19.887,1485.720
19.902,1468.138
19.918,1436.646
19.934,1315.019
19.949,1244.691
19.965,1223.437
19.980,1290.835
19.996,1419.771
20.012,1630.049
20.027,1838.844
20.043,1972.158
20.059,1988.292
20.074,1881.318
20.090,1712.098
20.105,1497.442
20.121,1273.253
20.137,1149.438
20.152,1079.109
20.168,1055.667
20.184,1047.616
20.199,1095.984
20.215,1123.065
20.230,1169.243
20.246,1227.109
20.262,1288.646
20.277,1366.317
20.293,1439.576
20.309,1438.094
20.324,1457.865
20.340,1417.581
20.355,1394.880
20.371,1408.790
20.387,1410.980
20.402,1374.367
20.418,1405.119
20.434,1423.442
20.449,1424.183
20.465,1399.999
20.480,1449.815
20.496,1448.367
20.512,1483.531
20.527,1505.492
20.543,1552.377
20.559,1506.233
20.574,1512.835
20.590,1461.537
20.605,1447.626
20.621,1485.720
20.637,1514.283
20.652,1580.233
20.668,1611.725
20.684,1630.049
20.699,1636.617
20.715,1627.826
20.730,1563.358
20.746,1513.542
20.762,1410.980
20.777,1368.506
20.793,1353.855
20.809,1326.741
20.824,1367.024
20.840,1452.746
20.855,1482.049
20.871,1460.796
20.887,1434.423
20.902,1308.418
20.918,1199.995
20.934,1043.238
20.949,905.511
20.965,760.442
20.980,716.487
20.996,709.144
21.012,788.264
21.027,895.979
21.043,1060.079
21.059,1195.616
21.074,1306.969
21.090,1440.283
21.105,1536.277
21.121,1533.347
21.137,1572.890
21.152,1532.606
21.168,1534.795
21.184,1498.183
21.199,1461.537
21.215,1429.303
21.230,1451.297
21.246,1408.049
21.262,1399.999
21.277,1444.696
21.293,1456.417
21.309,1491.581
21.324,1462.278
21.340,1493.029
21.355,1485.720
21.371,1504.751
21.387,1544.327
21.402,1562.651
21.418,1582.422
21.434,1589.024
21.449,1602.934
21.465,1643.218
21.480,1643.959
21.496,1661.541
21.512,1742.850
21.527,1877.646
21.543,1944.337
21.559,1925.273
21.574,1807.318
21.590,1581.681
21.605,1289.387
21.621,1006.592
21.637,808.776
21.652,695.234
21.668,720.866
21.684,809.517
21.699,909.890
21.715,1097.432
21.730,1201.477
21.746,1333.342
21.762,1405.119
21.777,1457.158
21.793,1441.024
21.809,1474.740
21.824,1465.208
21.840,1438.835
21.855,1446.144
21.871,1452.005
21.887,1432.974
21.902,1414.651
21.918,1405.119
21.934,1413.203
21.949,1461.537
21.965,1482.790
21.980,1517.954
21.996,1478.378
22.012,1490.840
22.027,1514.283
22.043,1495.960
22.059,1504.044
22.074,1497.442
22.090,1515.024
22.105,1534.795
22.121,1532.606
22.137,1557.497
22.152,1571.442
22.168,1590.472
22.184,1657.870
22.199,1675.452
22.215,1646.890
22.230,1610.984
22.246,1586.801
22.262,1517.213
22.277,1454.935
22.293,1432.974
22.309,1429.303
22.324,1459.347
22.340,1533.347
22.355,1492.322
22.371,1465.949
22.387,1369.955
22.402,1216.128
22.418,1082.781
22.434,927.472
22.449,810.258
22.465,742.119
22.480,723.796
22.496,741.378
22.512,854.213
22.527,910.631
22.543,1036.636
22.559,1169.243
22.574,1285.716
22.590,1383.899
22.605,1417.581
22.621,1459.347
22.637,1475.447
22.652,1458.606
22.668,1414.651
22.684,1408.790
22.699,1358.974
22.715,1336.273
22.730,1343.582
22.746,1343.582
22.762,1375.816
22.777,1359.715
22.793,1406.601
22.809,1405.119
22.824,1429.303
22.840,1421.253
22.855,1468.879
22.871,1456.417
22.887,1476.188
22.902,1520.144
22.918,1513.542
22.934,1493.029
22.949,1545.776
22.965,1535.536
22.980,1506.233
22.996,1479.860
23.012,1438.094
23.027,1375.816
23.043,1339.203
23.059,1357.526
23.074,1465.949
23.090,1711.357
23.105,1965.557
23.121,2155.322
23.137,2188.263
23.152,2034.437
23.168,1781.686
23.184,1477.670
23.199,1216.128
23.215,1092.313
23.230,1012.452
23.246,1025.656
23.262,1032.965
23.277,1132.597
23.293,1175.811
23.309,1263.721
23.324,1315.760
23.340,1357.526
23.355,1380.969
23.371,1396.328
23.387,1388.278
23.402,1380.969
23.418,1332.601
23.434,1323.810
23.449,1279.855
23.465,1290.835
23.480,1282.044
23.496,1290.094
23.512,1318.691
23.527,1354.596
23.543,1358.974
23.559,1386.830
23.574,1414.651
23.590,1449.074
23.605,1435.164
23.621,1471.069
23.637,1495.960
23.652,1506.233
23.668,1521.626
23.684,1534.795
23.699,1509.904
23.715,1527.486
23.730,1480.601
23.746,1479.860
23.762,1468.138
23.777,1462.278
23.793,1448.367
23.809,1423.442
23.824,1405.860
23.840,1364.094
23.855,1354.596
23.871,1383.158
23.887,1463.019
23.902,1554.567
23.918,1637.358
23.934,1749.452
23.949,1806.610
23.965,1817.591
23.980,1802.198
23.996,1632.979
24.012,1432.974
24.027,1238.089
24.043,1022.725
24.059,858.592
24.074,718.676
24.090,691.562
24.105,706.214
24.121,801.467
24.137,972.168
24.152,1132.597
24.168,1272.512
24.184,1443.214
24.199,1538.467
24.215,1558.238
24.230,1557.497
24.246,1498.890
24.262,1443.955
24.277,1400.740
24.293,1392.690
24.309,1372.885
24.324,1325.292
24.340,1372.885
24.355,1388.278
24.371,1402.930
24.387,1379.487
24.402,1402.189
24.418,1427.854
24.434,1471.810
24.449,1463.726
24.465,1512.094
24.480,1484.979
24.496,1512.094
24.512,1484.979
24.527,1460.796
24.543,1434.423
24.559,1355.303
24.574,1287.164
24.590,1334.791
24.605,1453.487
24.621,1733.318
24.637,2046.899
24.652,2281.327
24.668,2331.884
24.684,2186.074
24.699,1901.089
24.715,1553.859
24.730,1236.641
24.746,973.617
24.762,842.492
24.777,788.264
24.793,822.721
24.809,944.313
24.824,1027.104
24.840,1138.457
24.855,1273.994
24.871,1371.437
24.887,1435.164
24.902,1500.372
24.918,1486.461
24.934,1485.720
24.949,1432.974
24.965,1416.133
24.980,1369.955
24.996,1365.576
25.012,1342.133
25.027,1328.223
25.043,1345.064
25.059,1349.442
25.074,1386.830
25.090,1448.367
25.105,1473.999
25.121,1510.612
25.137,1496.701
25.152,1516.472
25.168,1509.163
25.184,1498.183
25.199,1465.949
25.215,1469.587
25.230,1433.715
25.246,1465.208
25.262,1435.164
25.277,1409.531
25.293,1385.348
25.309,1416.840
25.324,1396.328
25.340,1434.423
25.355,1413.910
25.371,1399.258
25.387,1390.467
25.402,1376.557
25.418,1394.880
25.434,1433.715
25.449,1439.576
25.465,1427.854
25.480,1454.935
25.496,1430.785
25.512,1464.467
25.527,1441.024
25.543,1388.278
25.559,1394.139
25.574,1346.512
25.590,1275.443
25.605,1202.184
25.621,1107.705
25.637,1046.875
25.652,1013.934
25.668,1011.711
25.684,1082.040
25.699,1159.711
25.715,1290.094
25.730,1344.323
25.746,1456.417
25.762,1468.138
25.777,1468.138
25.793,1442.506
25.809,1432.974
25.824,1408.790
25.840,1352.373
25.855,1336.273
25.871,1309.159
25.887,1309.159
25.902,1323.810
25.918,1327.482
25.934,1383.158
25.949,1393.398
25.965,1398.551
25.980,1429.303
25.996,1412.462
26.012,1409.531
26.027,1445.437
26.043,1465.208
26.059,1469.587
26.074,1441.024
26.090,1428.562
26.105,1430.785
26.121,1347.994
26.137,1337.721
26.152,1268.875
26.168,1335.532
26.184,1458.606
26.199,1732.611
26.215,1952.387
26.230,2062.258
26.246,1998.531
26.262,1809.541
26.277,1556.049
26.293,1340.651
26.309,1117.945
26.324,1008.074
26.340,967.756
26.355,991.940
26.371,1030.034
26.387,1083.522
26.402,1147.248
26.418,1242.502
26.434,1301.108
26.449,1414.651
26.465,1452.005
26.480,1488.651
26.496,1446.144
26.512,1411.721
26.527,1386.089
26.543,1351.665
26.559,1338.462
26.574,1320.880
26.590,1283.526
26.605,1293.025
26.621,1331.860
26.637,1329.671
26.652,1375.108
26.668,1413.203
26.684,1439.576
26.699,1422.701
26.715,1447.626
26.730,1495.252
26.746,1479.119
26.762,1446.144
26.777,1451.297
26.793,1414.651
26.809,1416.133
26.824,1391.208
26.840,1430.044
26.855,1430.785
26.871,1484.979
26.887,1468.879
26.902,1453.487
26.918,1490.099
26.934,1481.308
26.949,1539.208
26.965,1574.372
26.980,1635.168
26.996,1701.084
27.012,1738.471
27.027,1736.989
27.043,1664.472
27.059,1582.422
27.074,1404.412
27.090,1278.373
27.105,1095.243
27.121,997.801
27.137,875.467
27.152,778.765
27.168,714.298
27.184,668.860
27.199,754.582
27.215,904.770
27.230,1035.895
27.246,1257.153
27.262,1395.621
27.277,1502.562
27.293,1541.397
27.309,1543.586
27.324,1533.347
27.340,1458.606
27.355,1416.133
27.371,1386.089
27.387,1328.223
27.402,1358.233
27.418,1362.646
27.434,1367.024
27.449,1370.696
27.465,1393.398
27.480,1354.596
27.496,1369.955
27.512,1392.690
27.527,1377.298
27.543,1406.601
27.559,1387.537
27.574,1441.765
27.590,1419.771
27.605,1472.517
27.621,1459.347
27.637,1479.119
27.652,1476.929
27.668,1485.720
27.684,1503.303
27.699,1470.328
27.715,1367.024
27.730,1322.328
27.746,1217.577
27.762,1198.546
27.777,1293.025
27.793,1463.726
27.809,1652.009
27.824,1856.426
27.840,1960.437
27.855,1947.975
27.871,1781.686
27.887,1624.895
27.902,1453.487
27.918,1317.209
27.934,1238.830
27.949,1213.198
27.965,1198.546
27.980,1183.895
27.996,1209.527
28.012,1226.368
28.027,1275.443
28.043,1371.437
28.059,1408.049
28.074,1493.029
28.090,1485.720
28.105,1456.417
28.121,1438.835
28.137,1389.019
28.152,1388.278
28.168,1372.885
28.184,1317.950
28.199,1328.223
28.215,1333.342
28.230,1385.348
28.246,1414.651
28.262,1399.258
28.277,1435.164
28.293,1442.506
28.309,1483.531
28.324,1481.308
28.340,1513.542
28.355,1489.392
28.371,1480.601
28.387,1507.681
28.402,1498.183
28.418,1498.183
28.434,1486.461
28.449,1476.188
28.465,1420.512
28.480,1375.108
28.496,1345.805
28.512,1297.437
28.527,1239.571
28.543,1236.641
28.559,1214.646
28.574,1267.393
28.590,1313.537
28.605,1383.158
28.621,1506.974
28.637,1541.397
28.652,1593.402
28.668,1558.979
28.684,1455.676
28.699,1393.398
28.715,1296.696
28.730,1203.666
28.746,1082.781
28.762,1027.104
28.777,948.726
28.793,945.054
28.809,976.547
28.824,1071.059
28.840,1199.995
28.855,1326.000
28.871,1446.885
28.887,1494.511
28.902,1547.999
28.918,1533.347
28.934,1528.194
28.949,1482.790
28.965,1422.701
28.980,1386.089
28.996,1380.228
29.012,1363.387
29.027,1341.392
29.043,1336.273
29.059,1339.203
29.074,1388.278
29.090,1400.740
29.105,1384.607
29.121,1408.049
29.137,1457.865
29.152,1470.328
29.168,1439.576
29.184,1449.074
29.199,1468.879
29.215,1490.099
29.230,1487.910
29.246,1501.113
29.262,1509.904
29.277,1530.417
29.293,1509.904
29.309,1484.979
29.324,1470.328
29.340,1432.233
29.355,1374.367
29.371,1288.646
29.387,1260.791
29.402,1222.696
29.418,1348.735
29.434,1497.442
29.449,1709.875
29.465,1898.900
29.480,2008.805
29.496,2004.392
29.512,1885.730
29.527,1693.775
29.543,1462.278
29.559,1254.223
29.574,1086.452
29.590,987.561
29.605,915.010
29.621,928.213
29.637,938.453
29.652,1041.015
29.668,1150.179
29.684,1216.128
29.699,1345.064
29.715,1441.024
29.730,1480.601
29.746,1541.397
29.762,1498.890
29.777,1479.119
29.793,1449.074
29.809,1373.626
29.824,1345.805
29.840,1343.582
29.855,1334.791
29.871,1339.203
29.887,1350.183
29.902,1353.114
29.918,1393.398
29.934,1453.487
29.949,1490.840
29.965,1480.601
29.980,1527.486
29.996,1508.422
30.012,1526.745
30.027,1476.188
30.043,1462.278
30.059,1460.088
30.074,1464.467
30.090,1502.562
30.105,1500.372
30.121,1495.960
30.137,1457.158
30.152,1405.119
30.168,1320.139
30.184,1276.925
30.199,1257.861
30.215,1299.626
30.230,1421.253
30.246,1607.313
30.262,1704.015
30.277,1753.831
30.293,1691.586
30.309,1557.497
30.324,1408.049
30.340,1203.666
30.355,1008.074
30.371,901.840
30.387,786.074
30.402,819.790
30.418,930.403
30.434,1030.775
30.449,1178.741
30.465,1351.665
30.480,1438.094
30.496,1532.606
30.512,1534.054
30.527,1500.372
30.543,1451.297
30.559,1382.417
30.574,1294.507
30.590,1241.760
30.605,1211.716
30.621,1219.059
30.637,1220.507
30.652,1262.273
30.668,1298.178
30.684,1349.442
30.699,1397.069
30.715,1421.253
30.730,1414.651
30.746,1419.063
30.762,1432.233
30.777,1448.367
30.793,1473.258
30.809,1456.417
30.824,1449.815
30.840,1460.796
30.855,1485.720
30.871,1493.029
30.887,1513.542
30.902,1501.821
30.918,1465.208
30.934,1413.910
30.949,1355.303
30.965,1304.746
30.980,1450.556
30.996,1677.641
31.012,1996.342
31.027,2259.332
31.043,2389.009
31.059,2304.029
31.074,2096.715
31.090,1767.775
31.105,1451.297
31.121,1208.045
31.137,1019.054
31.152,917.233
31.168,827.099
31.184,843.233
31.199,852.024
31.215,928.213
31.230,1016.124
31.246,1074.731
31.262,1217.577
31.277,1295.955
31.293,1376.557
31.309,1357.526
31.324,1350.924
31.340,1316.468
31.355,1331.153
31.371,1287.164
31.387,1282.785
31.402,1347.253
31.418,1356.044
31.434,1358.974
31.449,1389.760
31.465,1389.019
31.480,1413.203
31.496,1421.994
31.512,1415.392
31.527,1434.423
31.543,1478.378
31.559,1462.278
31.574,1508.422
31.590,1491.581
31.605,1534.054
31.621,1514.283
31.637,1495.960
31.652,1486.461
31.668,1424.183
31.684,1353.114
31.699,1283.526
31.715,1210.975
31.730,1235.159
31.746,1232.228
31.762,1303.298
31.777,1395.621
31.793,1493.770
31.809,1534.795
31.824,1607.313
31.840,1574.372
31.855,1512.094
31.871,1468.879
31.887,1349.442
31.902,1214.646
31.918,1094.502
31.934,988.269
31.949,951.656
31.965,890.119
31.980,948.726
31.996,1022.725
32.012,1129.666
32.027,1298.178
32.043,1428.562
32.059,1514.283
32.074,1556.790
32.090,1562.651
32.105,1498.183
32.121,1483.531
32.137,1426.372
32.152,1364.835
32.168,1341.392
32.184,1301.108
32.199,1333.342
32.215,1321.621
32.230,1372.885
32.246,1360.456
32.262,1416.133
32.277,1441.024
32.293,1449.815
32.309,1443.955
32.324,1457.158
32.340,1488.651
32.355,1458.606
32.371,1461.537
32.387,1495.252
32.402,1533.347
32.418,1528.194
32.434,1559.720
32.449,1517.213
32.465,1445.437
32.480,1405.860
32.496,1382.417
32.512,1481.308
32.527,1629.308
32.543,1850.566
32.559,1940.665
32.574,1951.646
32.590,1806.610
32.605,1516.472
32.621,1243.209
32.637,1046.168
32.652,906.960
32.668,906.960
32.684,950.174
32.699,1007.333
32.715,1115.015
32.730,1223.437
32.746,1309.900
32.762,1342.874
32.777,1393.398
32.793,1430.785
32.809,1463.726
32.824,1473.999
32.840,1511.353
32.855,1492.322
32.871,1441.024
32.887,1419.771
32.902,1369.248
32.918,1379.487
32.934,1347.994
32.949,1355.303
32.965,1386.830
32.980,1421.994
32.996,1427.854
33.012,1450.556
33.027,1501.821
33.043,1482.049
33.059,1540.656
33.074,1556.790
33.090,1531.865
33.105,1552.377
33.121,1531.124
33.137,1526.745
33.152,1512.094
33.168,1521.626
33.184,1530.417
33.199,1517.954
33.215,1476.929
33.230,1447.626
33.246,1398.551
33.262,1326.000
33.277,1254.930
33.293,1273.253
33.309,1286.457
33.324,1292.317
33.340,1389.019
33.355,1435.905
33.371,1517.213
33.387,1558.238
33.402,1526.745
33.418,1410.272
33.434,1308.418
33.449,1191.945
33.465,1081.332
33.480,990.492
33.496,925.283
33.512,912.820
33.527,961.188
33.543,1005.851
33.559,1147.989
33.574,1230.039
33.590,1344.323
33.605,1419.063
33.621,1457.158
33.637,1469.587
33.652,1478.378
33.668,1473.999
33.684,1432.233
33.699,1430.785
33.715,1383.899
33.730,1373.626
33.746,1360.456
33.762,1385.348
33.777,1385.348
33.793,1417.581
33.809,1447.626
33.824,1460.088
33.840,1474.740
33.855,1463.019
33.871,1512.835
33.887,1470.328
33.902,1462.278
33.918,1478.378
33.934,1457.865
33.949,1502.562
33.965,1490.099
33.980,1536.277
33.996,1525.263
34.012,1512.835
34.027,1543.586
34.043,1506.974
34.059,1449.074
34.074,1389.760
34.090,1345.064
34.105,1296.696
34.121,1310.607
34.137,1439.576
34.152,1580.233
34.168,1764.104
34.184,1914.292
34.199,1947.267
34.215,1891.591
34.230,1708.427
34.246,1528.194
34.262,1347.253
34.277,1160.452
34.293,1079.109
34.309,1063.750
34.324,1043.238
34.340,1052.029
34.355,1012.452
34.371,1056.408
34.387,1144.318
34.402,1237.348
34.418,1295.955
34.434,1409.531
34.449,1434.423
34.465,1482.049
34.480,1427.113
34.496,1394.880
34.512,1380.228
34.527,1356.044
34.543,1304.039
34.559,1297.437
34.574,1284.234
34.590,1337.721
34.605,1408.049
34.621,1464.467
34.637,1496.701
34.652,1547.258
34.668,1539.915
34.684,1532.606
34.699,1564.840
34.715,1556.790
34.730,1515.765
34.746,1541.397
34.762,1503.303
34.777,1483.531
34.793,1489.392
34.809,1478.378
34.824,1476.188
34.840,1493.770
34.855,1471.069
34.871,1484.979
34.887,1452.005
34.902,1432.974
34.918,1419.063
34.934,1402.189
34.949,1394.139
34.965,1384.607
34.980,1451.297
34.996,1482.049
35.012,1463.019
35.027,1472.517
35.043,1460.088
35.059,1452.746
35.074,1438.094
35.090,1375.816
35.105,1317.950
35.121,1249.811
35.137,1109.895
35.152,1051.288
35.168,946.536
35.184,931.885
35.199,942.865
35.215,989.751
35.230,1083.522
35.246,1202.925
35.262,1309.159
35.277,1397.810
35.293,1457.865
35.309,1518.695
35.324,1495.960
35.340,1452.005
35.355,1406.601
35.371,1319.398
35.387,1302.557
35.402,1323.810
35.418,1323.810
35.434,1344.323
35.449,1352.373
35.465,1373.626
35.480,1421.994
35.496,1468.879
35.512,1454.935
35.527,1483.531
35.543,1455.676
35.559,1437.353
35.574,1452.746
35.590,1482.790
35.605,1488.651
35.621,1475.447
35.637,1432.974
35.652,1402.930
35.668,1405.860
35.684,1326.741
35.699,1320.880
35.715,1291.576
35.730,1383.899
35.746,1560.427
35.762,1793.407
35.777,1956.766
35.793,2030.765
35.809,1950.198
35.824,1776.566
35.840,1515.765
35.855,1331.860
35.871,1147.989
35.887,1030.034
35.902,1024.174
35.918,1046.875
35.934,1088.641
35.949,1147.248
35.965,1232.969
35.980,1283.526
35.996,1370.696
36.012,1446.885
36.027,1463.726
36.043,1484.979
36.059,1463.726
36.074,1471.810
36.090,1410.980
36.105,1377.298
36.121,1339.944
36.137,1310.607
36.152,1374.367
36.168,1408.049
36.184,1424.183
36.199,1486.461
36.215,1498.890
36.230,1519.403
36.246,1543.586
36.262,1531.124
36.277,1535.536
36.293,1524.556
36.309,1510.612
36.324,1467.397
36.340,1466.656
36.355,1429.303
36.371,1446.144
36.387,1460.088
36.402,1473.999
36.418,1456.417
36.434,1482.790
36.449,1476.929
36.465,1415.392
36.480,1383.158
36.496,1354.596
36.512,1359.715
36.527,1353.855
36.543,1341.392
36.559,1360.456
36.574,1396.328
36.590,1397.810
36.605,1409.531
36.621,1371.437
36.637,1316.468
36.652,1205.855
36.668,1113.566
36.684,1032.224
36.699,961.895
36.715,875.467
36.730,886.447
36.746,905.511
36.762,1016.865
36.777,1139.198
36.793,1213.198
36.809,1361.164
36.824,1435.164
36.840,1493.029
36.855,1509.904
36.871,1539.208
36.887,1482.049
36.902,1490.840
36.918,1417.581
36.934,1413.910
36.949,1399.258
36.965,1406.601
36.980,1413.203
36.996,1427.854
37.012,1415.392
37.027,1450.556
37.043,1444.696
37.059,1471.810
37.074,1461.537
37.090,1484.979
37.105,1472.517
37.121,1474.740
37.137,1487.169
37.152,1482.790
37.168,1473.999
37.184,1503.303
37.199,1455.676
37.215,1390.467
37.230,1350.924
37.246,1333.342
37.262,1323.810
37.277,1353.855
37.293,1523.074
37.309,1704.756
37.324,1848.343
37.340,1958.248
37.355,1982.431
37.371,1878.387
37.387,1753.831
37.402,1599.263
37.418,1446.144
37.434,1357.526
37.449,1233.710
37.465,1161.900
37.480,1101.845
37.496,1021.984
37.512,960.447
37.527,962.636
37.543,970.686
37.559,1030.775
37.574,1160.452
37.590,1221.248
37.605,1313.537
37.621,1404.412
37.637,1388.278
37.652,1402.930
37.668,1416.840
37.684,1401.481
37.699,1423.442
37.715,1382.417
37.730,1385.348
37.746,1410.272
37.762,1463.019
37.777,1504.044
37.793,1484.979
37.809,1488.651
37.824,1513.542
37.840,1522.333
37.855,1532.606
37.871,1547.999
37.887,1558.979
37.902,1558.238
37.918,1526.004
37.934,1487.910
37.949,1420.512
37.965,1405.119
37.980,1350.924
37.996,1297.437
38.012,1232.228
38.027,1190.463
38.043,1240.278
38.059,1271.805
38.074,1401.481
38.090,1572.890
38.105,1671.781
38.121,1696.706
38.137,1659.352
38.152,1511.353
38.168,1375.816
38.184,1150.920
38.199,961.188
38.215,861.523
38.230,778.765
38.246,748.721
38.262,787.556
38.277,892.308
38.293,1032.965
38.309,1164.830
38.324,1289.387
38.340,1364.835
38.355,1489.392
38.371,1505.492
38.387,1509.904
38.402,1515.765
38.418,1506.974
38.434,1446.144
38.449,1450.556
38.465,1398.551
38.480,1425.631
38.496,1384.607
38.512,1378.746
38.527,1391.208
38.543,1446.144
38.559,1442.506
38.574,1466.656
38.590,1470.328
38.605,1483.531
38.621,1511.353
38.637,1510.612
38.652,1550.188
38.668,1574.372
38.684,1545.776
38.699,1550.188
38.715,1600.745
38.730,1579.492
38.746,1529.676
38.762,1463.726
38.777,1421.253
38.793,1419.063
38.809,1448.367
38.824,1626.377
38.840,1854.944
38.855,2012.442
38.871,2071.790
38.887,1950.198
38.902,1747.970
38.918,1521.626
38.934,1330.412
38.949,1161.900
38.965,1093.761
38.980,1046.168
38.996,1056.408
39.012,1071.059
39.027,1078.402
39.043,1102.552
39.059,1055.667
39.074,1117.204
39.090,1173.621
39.105,1257.153
39.121,1387.537
39.137,1465.949
39.152,1526.745
39.168,1558.979
39.184,1517.954
39.199,1458.606
39.215,1416.840
39.230,1370.696
39.246,1361.905
39.262,1297.437
39.277,1314.278
39.293,1337.721
39.309,1334.791
39.324,1383.899
39.340,1384.607
39.355,1421.253
39.371,1448.367
39.387,1470.328
39.402,1483.531
39.418,1482.049
39.434,1465.208
39.449,1479.119
39.465,1480.601
39.480,1468.138
39.496,1471.810
39.512,1474.740
39.527,1460.088
39.543,1465.949
39.559,1468.138
39.574,1500.372
39.590,1468.138
39.605,1447.626
39.621,1395.621
39.637,1382.417
39.652,1365.576
39.668,1433.715
39.684,1498.890
39.699,1558.979
39.715,1642.477
39.730,1624.188
39.746,1591.213
39.762,1504.044
39.777,1335.532
39.793,1227.850
39.809,1102.552
39.824,993.422
39.840,869.606
39.855,832.219
39.871,794.865
39.887,826.358
39.902,882.776
39.918,1014.642
39.934,1136.268
39.949,1280.596
39.965,1393.398
39.980,1496.701
39.996,1558.979
40.012,1575.079
40.027,1569.960
40.043,1512.094
40.059,1464.467
40.074,1460.088
40.090,1438.094
40.105,1408.790
40.121,1402.189
40.137,1410.272
40.152,1465.208
40.168,1444.696
40.184,1478.378
40.199,1496.701
40.215,1465.208
40.230,1507.681
40.246,1501.113
40.262,1491.581
40.277,1504.751
40.293,1505.492
40.309,1506.233
40.324,1496.701
40.340,1528.194
40.355,1482.790
40.371,1442.506
40.387,1358.233
40.402,1354.596
40.418,1452.005
40.434,1681.313
40.449,1953.128
40.465,2180.954
40.480,2296.720
40.496,2232.959
40.512,2035.178
40.527,1761.914
40.543,1408.049
40.559,1135.527
40.574,944.313
40.590,899.651
40.605,928.213
40.621,989.751
40.637,1095.984
40.652,1137.716
40.668,1165.571
40.684,1163.382
40.699,1159.711
40.715,1268.875
40.730,1319.398
40.746,1408.049
40.762,1500.372
40.777,1545.776
40.793,1576.561
40.809,1562.651
40.824,1504.044
40.840,1448.367
40.855,1424.183
40.871,1422.701
40.887,1413.910
40.902,1430.785
40.918,1414.651
40.934,1435.164
40.949,1430.044
40.965,1460.796
40.980,1459.347
40.996,1487.169
41.012,1513.542
41.027,1490.099
41.043,1505.492
41.059,1526.004
41.074,1488.651
41.090,1509.163
41.105,1493.029
41.121,1482.049
41.137,1487.169
41.152,1490.099
41.168,1457.158
41.184,1486.461
41.199,1462.278
41.215,1435.164
41.230,1457.158
41.246,1486.461
41.262,1550.188
41.277,1619.034
41.293,1684.984
41.309,1731.129
41.324,1758.984
41.340,1739.920
41.355,1646.149
41.371,1471.069
41.387,1268.134
41.402,1052.029
41.418,878.397
41.434,733.328
41.449,635.178
41.465,679.841
41.480,788.264
41.496,917.940
41.512,1076.920
41.527,1223.437
41.543,1338.462
41.559,1449.074
41.574,1481.308
41.590,1484.238
41.605,1476.188
41.621,1438.835
41.637,1416.133
41.652,1386.089
41.668,1332.601
41.684,1360.456
41.699,1349.442
41.715,1350.924
41.730,1399.999
41.746,1476.929
41.762,1498.890
41.777,1487.169
41.793,1501.113
41.809,1504.044
41.824,1555.308
41.840,1539.208
41.855,1536.985
41.871,1564.840
41.887,1611.725
41.902,1610.243
41.918,1596.333
41.934,1535.536
41.949,1482.049
41.965,1430.785
41.980,1380.969
41.996,1441.024
42.012,1596.333
42.027,1886.437
42.043,2147.979
42.059,2323.093
42.074,2354.586
42.090,2218.308
42.105,1956.058
42.121,1639.547
42.137,1399.999
42.152,1181.672
42.168,1015.383
42.184,966.308
42.199,958.258
42.215,978.770
42.230,996.352
42.246,1033.706
42.262,1119.427
42.277,1222.696
42.293,1266.652
42.309,1359.715
42.324,1439.576
42.340,1508.422
42.355,1486.461
42.371,1464.467
42.387,1449.074
42.402,1422.701
42.418,1374.367
42.434,1366.317
42.449,1419.063
42.465,1440.283
42.480,1446.144
42.496,1481.308
42.512,1520.885
42.527,1555.308
42.543,1514.283
42.559,1531.124
42.574,1524.556
42.590,1509.904
42.605,1449.815
42.621,1453.487
42.637,1398.551
42.652,1397.810
42.668,1350.924
42.684,1323.810
42.699,1332.601
42.715,1372.178
42.730,1399.258
42.746,1388.278
42.762,1408.790
42.777,1394.880
42.793,1347.994
42.809,1329.671
42.824,1288.646
42.840,1228.557
42.855,1241.760
42.871,1254.223
42.887,1398.551
42.902,1526.745
42.918,1631.497
42.934,1676.934
42.949,1596.333
42.965,1463.019
42.980,1253.482
42.996,1101.845
43.012,959.706
43.027,872.537
43.043,814.637
43.059,911.372
43.074,1002.920
43.090,1092.313
43.105,1200.736
43.121,1343.582
43.137,1400.740
43.152,1446.885
43.168,1490.099
43.184,1520.144
43.199,1508.422
43.215,1475.447
43.230,1473.258
43.246,1465.208
43.262,1446.885
43.277,1457.865
43.293,1428.562
43.309,1425.631
43.324,1455.676
43.340,1441.024
43.355,1478.378
43.371,1448.367
43.387,1483.531
43.402,1490.099
43.418,1459.347
43.434,1494.511
43.449,1515.024
43.465,1550.188
43.480,1589.731
43.496,1626.377
43.512,1634.427
43.527,1595.592
43.543,1559.720
43.559,1501.821
43.574,1418.322
43.590,1457.158
43.605,1542.845
43.621,1786.805
43.637,2008.064
43.652,2172.904
43.668,2245.422
43.684,2138.447
43.699,1946.526
43.715,1713.547
43.730,1442.506
43.746,1204.407
43.762,1039.566
43.777,916.492
43.793,809.517
43.809,775.835
43.824,843.233
43.840,881.328
43.855,961.895
43.871,1083.522
43.887,1199.995
43.902,1240.278
43.918,1311.348
43.934,1353.114
43.949,1385.348
43.965,1362.646
43.980,1329.671
43.996,1345.064
44.012,1313.537
44.027,1349.442
44.043,1378.039
44.059,1406.601
44.074,1402.930
44.090,1451.297
44.105,1447.626
44.121,1462.278
44.137,1518.695
44.152,1512.835
44.168,1495.960
44.184,1502.562
44.199,1469.587
44.215,1468.879
44.230,1464.467
44.246,1469.587
44.262,1498.890
44.277,1500.372
44.293,1461.537
44.309,1430.785
44.324,1378.039
44.340,1366.317
44.355,1321.621
44.371,1367.024
44.387,1370.696
44.402,1427.113
44.418,1452.746
44.434,1558.238
44.449,1629.308
44.465,1663.731
44.480,1740.661
44.496,1820.521
44.512,1844.705
44.527,1849.825
44.543,1727.457
44.559,1581.681
44.574,1435.905
44.590,1217.577
44.605,1027.104
44.621,838.821
44.637,702.576
44.652,682.771
44.668,688.632
44.684,785.333
44.699,912.820
44.715,1053.477
44.730,1160.452
44.746,1299.626
44.762,1387.537
44.777,1449.074
44.793,1476.188
44.809,1467.397
44.824,1445.437
44.840,1468.879
44.855,1425.631
44.871,1433.715
44.887,1443.214
44.902,1500.372
44.918,1475.447
44.934,1462.278
44.949,1431.492
44.965,1451.297
44.980,1401.481
44.996,1422.701
45.012,1467.397
45.027,1471.069
45.043,1508.422
45.059,1520.144
45.074,1520.144
45.090,1543.586
45.105,1580.940
45.121,1549.447
45.137,1550.188
45.152,1548.706
45.168,1554.567
45.184,1521.626
45.199,1490.840
45.215,1476.929
45.230,1432.974
45.246,1380.228
45.262,1360.456
45.277,1507.681
45.293,1720.148
45.309,1994.153
45.324,2232.959
45.340,2315.009
45.355,2232.252
45.371,2001.462
45.387,1690.104
45.402,1386.830
45.418,1169.243
45.434,1012.452
45.449,961.895
45.465,975.840
45.480,996.352
45.496,1073.249
45.512,1101.104
45.527,1135.527
45.543,1189.755
45.559,1196.323
45.574,1242.502
45.590,1265.944
45.605,1292.317
45.621,1300.367
45.637,1282.044
45.652,1279.114
45.668,1224.919
45.684,1205.114
45.699,1205.855
45.715,1220.507
45.730,1226.368
45.746,1291.576
45.762,1323.810
45.777,1386.089
45.793,1424.183
45.809,1461.537
45.824,1474.740
45.840,1487.910
45.855,1454.935
45.871,1482.049
45.887,1441.765
45.902,1482.790
45.918,1458.606
45.934,1510.612
45.949,1525.263
45.965,1555.308
45.980,1556.790
45.996,1545.776
46.012,1528.194
46.027,1504.751
46.043,1479.119
46.059,1448.367
46.074,1427.854
46.090,1510.612
46.105,1570.701
46.121,1661.541
46.137,1710.616
46.152,1706.238
46.168,1668.850
46.184,1579.492
46.199,1410.272
46.215,1244.691
46.230,1095.984
46.246,1014.642
46.262,951.656
46.277,908.442
46.293,983.890
46.309,1056.408
46.324,1213.905
46.340,1353.114
46.355,1438.835
46.371,1484.979
46.387,1531.865
46.402,1536.277
46.418,1526.004
46.434,1477.670
46.449,1393.398
46.465,1358.233
46.480,1282.785
46.496,1271.805
46.512,1297.437
46.527,1326.741
46.543,1339.203
46.559,1339.944
46.574,1401.481
46.590,1391.208
46.605,1416.840
46.621,1460.796
46.637,1429.303
46.652,1465.949
46.668,1429.303
46.684,1469.587
46.699,1430.044
46.715,1427.113
46.730,1446.144
46.746,1397.069
46.762,1306.969
46.777,1283.526
46.793,1265.944
46.809,1360.456
46.824,1572.890
46.840,1853.496
46.855,2116.486
46.871,2257.143
46.887,2211.740
46.902,2052.019
46.918,1772.154
46.934,1483.531
46.949,1229.298
46.965,1071.059
46.980,953.845
46.996,938.453
47.012,917.940
47.027,980.959
47.043,1000.731
47.059,1076.920
47.074,1142.870
47.090,1219.766
47.105,1282.044
47.121,1364.094
47.137,1397.810
47.152,1440.283
47.168,1427.113
47.184,1382.417
47.199,1319.398
47.215,1317.950
47.230,1352.373
47.246,1352.373
47.262,1428.562
47.277,1479.119
47.293,1508.422
47.309,1524.556
47.324,1498.183
47.340,1467.397
47.355,1452.005
47.371,1454.935
47.387,1417.581
47.402,1405.860
47.418,1408.790
47.434,1428.562
47.449,1457.158
47.465,1453.487
47.480,1482.049
47.496,1460.796
47.512,1437.353
47.527,1466.656
47.543,1459.347
47.559,1452.005
47.574,1499.631
47.590,1501.113
47.605,1488.651
47.621,1473.999
47.637,1472.517
47.652,1474.740
47.668,1508.422
47.684,1529.676
47.699,1531.865
47.715,1639.547
47.730,1684.243
47.746,1718.666
47.762,1706.238
47.777,1622.706
47.793,1537.726
47.809,1346.512
47.824,1183.154
47.840,1073.249
47.855,964.118
47.871,934.815
47.887,983.890
47.902,1053.477
47.918,1070.318
47.934,1144.318
47.949,1194.134
47.965,1218.318
47.980,1226.368
47.996,1258.602
48.012,1241.019
48.027,1200.736
48.043,1195.616
48.059,1263.721
48.074,1264.462
48.090,1342.133
48.105,1367.024
48.121,1430.044
48.137,1430.044
48.152,1493.029
48.168,1481.308
48.184,1523.815
48.199,1511.353
48.215,1492.322
48.230,1508.422
48.246,1471.069
48.262,1415.392
48.277,1421.994
48.293,1498.183
48.309,1683.502
48.324,1996.342
48.340,2337.004
48.355,2532.596
48.371,2529.666
48.387,2275.466
48.402,1841.034
48.418,1381.676
48.434,945.054
48.449,597.084
48.465,460.806
48.480,400.009
48.496,511.363
48.512,666.671
48.527,832.960
48.543,1031.516
48.559,1163.382
48.574,1284.975
48.590,1397.810
48.605,1424.183
48.621,1443.955
48.637,1427.113
48.652,1361.905
48.668,1371.437
48.684,1358.974
48.699,1385.348
48.715,1383.158
48.730,1396.328
48.746,1424.183
48.762,1413.910
48.777,1458.606
48.793,1460.796
48.809,1493.029
48.824,1512.094
48.840,1491.581
48.855,1496.701
48.871,1517.954
48.887,1494.511
48.902,1470.328
48.918,1463.726
48.934,1468.138
48.949,1474.740
48.965,1476.188
48.980,1509.904
48.996,1531.865
49.012,1596.333
49.027,1624.895
49.043,1684.243
49.059,1695.224
49.074,1704.015
49.090,1717.959
49.105,1689.363
49.121,1611.725
49.137,1604.383
49.152,1597.815
49.168,1575.079
49.184,1528.935
49.199,1451.297
49.215,1298.178
49.230,1146.507
49.246,1055.667
49.262,919.422
49.277,857.885
49.293,791.194
49.309,758.960
49.324,785.333
49.340,871.796
49.355,974.358
49.371,1091.572
49.387,1212.457
49.402,1334.791
49.418,1419.771
49.434,1401.481
49.449,1425.631
49.465,1383.158
49.480,1381.676
49.496,1325.292
49.512,1284.975
49.527,1272.512
49.543,1287.164
49.559,1267.393
49.574,1322.328
49.590,1345.064
49.605,1385.348
49.621,1428.562
49.637,1454.935
49.652,1481.308
49.668,1465.208
49.684,1426.372
49.699,1427.113
49.715,1469.587
49.730,1482.049
49.746,1492.322
49.762,1516.472
49.777,1477.670
49.793,1486.461
49.809,1434.423
49.824,1349.442
49.840,1306.228
49.855,1248.362
49.871,1305.487
49.887,1397.810
49.902,1619.034
49.918,1846.894
49.934,2065.188
49.949,2141.378
49.965,2076.910
49.980,1860.805
49.996,1619.034
50.012,1347.253
50.027,1175.103
50.043,1076.179
50.059,1030.034
50.074,1002.920
50.090,1047.616
50.105,1076.179
50.121,1150.179
50.137,1218.318
50.152,1252.741
50.168,1334.083
50.184,1430.785
50.199,1443.214
50.215,1470.328
50.230,1454.935
50.246,1414.651
50.262,1396.328
50.277,1353.855
50.293,1305.487
50.309,1314.278
50.324,1328.930
50.340,1353.855
50.355,1380.969
50.371,1411.721
50.387,1389.019
50.402,1378.039
50.418,1421.994
50.434,1416.840
50.449,1407.342
50.465,1426.372
50.480,1428.562
50.496,1470.328
50.512,1480.601
50.527,1498.890
50.543,1522.333
50.559,1509.163
50.574,1526.004
50.590,1520.885
50.605,1523.815
50.621,1489.392
50.637,1505.492
50.652,1513.542
50.668,1486.461
50.684,1496.701
50.699,1457.158
50.715,1426.372
50.730,1413.910
50.746,1422.701
50.762,1429.303
50.777,1463.726
50.793,1463.726
50.809,1487.169
50.824,1492.322
50.840,1424.924
50.855,1382.417
50.871,1277.666
50.887,1187.532
50.902,1064.458
50.918,972.168
50.934,913.561
50.949,904.029
50.965,915.751
50.980,974.358
50.996,1106.964
51.012,1199.254
51.027,1351.665
51.043,1443.955
51.059,1491.581
51.074,1505.492
51.090,1520.144
51.105,1462.278
51.121,1449.815
51.137,1381.676
51.152,1361.905
51.168,1356.044
51.184,1317.950
51.199,1353.855
51.215,1367.765
51.230,1360.456
51.246,1428.562
51.262,1444.696
51.277,1475.447
51.293,1463.726
51.309,1449.074
51.324,1459.347
51.340,1466.656
51.355,1467.397
51.371,1423.442
51.387,1350.924
51.402,1226.368
51.418,1230.039
51.434,1301.816
51.449,1420.512
51.465,1643.218
51.480,1797.078
51.496,1910.621
51.512,1887.919
51.527,1813.178
51.543,1614.656
51.559,1429.303
51.574,1304.039
51.590,1202.925
51.605,1106.223
51.621,1130.407
51.637,1119.427
51.652,1146.507
51.668,1230.780
51.684,1285.716
51.699,1336.273
51.715,1376.557
51.730,1425.631
51.746,1441.765
51.762,1435.164
51.777,1456.417
51.793,1424.183
51.809,1392.690
51.824,1394.139
51.840,1361.905
51.855,1404.412
51.871,1391.208
51.887,1428.562
51.902,1451.297
51.918,1503.303
51.934,1505.492
51.949,1492.322
51.965,1486.461
51.980,1498.183
51.996,1481.308
52.012,1506.974
52.027,1550.929
52.043,1553.859
52.059,1523.074
52.074,1498.890
52.090,1456.417
52.105,1355.303
52.121,1289.387
52.137,1264.462
52.152,1224.178
52.168,1216.128
52.184,1243.209
52.199,1334.791
52.215,1342.133
52.230,1403.671
52.246,1414.651
52.262,1406.601
52.277,1371.437
52.293,1363.387
52.309,1298.885
52.324,1221.989
52.340,1174.362
52.355,1121.616
52.371,1068.870
52.387,1060.820
52.402,1013.193
52.418,1021.984
52.434,1055.667
52.449,1105.482
52.465,1168.502
52.480,1272.512
52.496,1409.531
52.512,1468.879
52.527,1521.626
52.543,1520.144
52.559,1485.720
52.574,1446.144
52.590,1401.481
52.605,1383.158
52.621,1374.367
52.637,1333.342
52.652,1337.721
52.668,1352.373
52.684,1334.083
52.699,1354.596
52.715,1421.994
52.730,1436.646
52.746,1462.278
52.762,1484.238
52.777,1473.258
52.793,1500.372
52.809,1478.378
52.824,1502.562
52.840,1559.720
52.855,1556.049
52.871,1510.612
52.887,1476.188
52.902,1362.646
52.918,1296.696
52.934,1314.278
52.949,1465.949
52.965,1725.268
52.980,1988.292
52.996,2143.601
53.012,2079.840
53.027,1878.387
53.043,1539.915
53.059,1237.348
53.074,952.397
53.090,821.980
53.105,777.283
53.121,876.915
53.137,991.199
53.152,1083.522
53.168,1113.566
53.184,1191.204
53.199,1193.393
53.215,1282.785
53.230,1315.760
53.246,1435.164
53.262,1485.720
53.277,1545.776
53.293,1581.681
53.309,1612.466
53.324,1558.979
53.340,1531.865
53.355,1488.651
53.371,1449.815
53.387,1407.342
53.402,1387.537
53.418,1398.551
53.434,1436.646
53.449,1438.094
53.465,1413.203
53.480,1430.044
53.496,1445.437
53.512,1467.397
53.527,1487.169
53.543,1490.840
53.559,1490.840
53.574,1545.068
53.590,1527.486
53.605,1501.113
53.621,1497.442
53.637,1485.720
53.652,1458.606
53.668,1403.671
53.684,1353.114
53.699,1305.487
53.715,1295.248
53.730,1298.178
53.746,1428.562
53.762,1531.865
53.777,1600.004
53.793,1619.034
53.809,1594.884
53.824,1505.492
53.840,1341.392
53.855,1213.905
53.871,1059.338
53.887,985.338
53.902,986.820
53.918,1030.034
53.934,1079.109
53.949,1169.950
53.965,1242.502
53.980,1318.691
53.996,1358.233
54.012,1369.248
54.027,1391.208
54.043,1386.089
54.059,1419.771
54.074,1419.063
54.090,1412.462
54.105,1360.456
54.121,1345.805
54.137,1364.094
54.152,1366.317
54.168,1394.139
54.184,1394.880
54.199,1409.531
54.215,1426.372
54.230,1464.467
54.246,1475.447
54.262,1483.531
54.277,1512.835
54.293,1513.542
54.309,1548.706
54.324,1541.397
54.340,1562.651
54.355,1528.935
54.371,1513.542
54.387,1487.910
54.402,1458.606
54.418,1386.089
54.434,1295.955
54.449,1234.418
54.465,1243.209
54.480,1363.387
54.496,1576.561
54.512,1829.312
54.527,2046.899
54.543,2093.785
54.559,1961.919
54.574,1718.666
54.590,1412.462
54.605,1157.521
54.621,1032.965
54.637,942.124
54.652,981.700
54.668,1035.895
54.684,1082.040
54.699,1114.273
54.715,1173.621
54.730,1190.463
54.746,1267.393
54.762,1347.253
54.777,1430.044
54.793,1498.183
54.809,1530.417
54.824,1526.004
54.840,1519.403
54.855,1495.960
54.871,1496.701
54.887,1471.810
54.902,1453.487
54.918,1441.024
54.934,1385.348
54.949,1380.969
54.965,1416.133
54.980,1416.840
54.996,1397.810
55.012,1417.581
55.027,1456.417
55.043,1450.556
55.059,1490.840
55.074,1482.790
55.090,1484.979
55.105,1478.378
55.121,1480.601
55.137,1483.531
55.152,1463.726
55.168,1468.879
55.184,1463.019
55.199,1458.606
55.215,1423.442
55.230,1410.980
55.246,1399.999
55.262,1435.905
55.277,1532.606
55.293,1610.984
55.309,1665.213
55.324,1686.432
55.340,1669.591
55.355,1589.024
55.371,1476.929
55.387,1342.133
55.402,1158.970
55.418,1065.940
55.434,940.676
55.449,890.119
55.465,870.314
55.480,896.720
55.496,971.427
55.512,1045.427
55.527,1183.895
55.543,1365.576
55.559,1483.531
55.574,1540.656
55.590,1602.193
55.605,1613.174
55.621,1578.751
55.637,1490.099
55.652,1478.378
55.668,1445.437
55.684,1402.189
55.699,1360.456
55.715,1318.691
55.730,1346.512
55.746,1343.582
55.762,1364.835
55.777,1384.607
55.793,1381.676
55.809,1386.830
55.824,1415.392
55.840,1449.815
55.855,1440.283
55.871,1450.556
55.887,1473.999
55.902,1504.751
55.918,1527.486
55.934,1521.626
55.949,1495.252
55.965,1417.581
55.980,1366.317
55.996,1331.153
56.012,1393.398
56.027,1506.233
56.043,1663.731
56.059,1862.287
56.074,2032.955
56.090,2074.721
56.105,1952.387
56.121,1721.597
56.137,1452.746
56.152,1210.975
56.168,1099.622
56.184,1016.124
56.199,958.965
56.215,995.611
56.230,1032.965
56.246,1080.591
56.262,1096.691
56.277,1123.065
56.293,1190.463
56.309,1306.969
56.324,1362.646
56.340,1454.935
56.355,1479.119
56.371,1486.461
56.387,1465.208
56.402,1409.531
56.418,1393.398
56.434,1320.880
56.449,1304.039
56.465,1334.083
56.480,1317.950
56.496,1386.089
56.512,1392.690
56.527,1402.930
56.543,1432.974
56.559,1474.740
56.574,1528.194
56.590,1510.612
56.605,1536.985
56.621,1530.417
56.637,1521.626
56.652,1483.531
56.668,1498.890
56.684,1452.746
56.699,1468.138
56.715,1478.378
56.730,1461.537
56.746,1522.333
56.762,1531.124
56.777,1599.263
56.793,1577.302
56.809,1570.701
56.824,1553.859
56.840,1490.840
56.855,1424.183
56.871,1371.437
56.887,1380.228
56.902,1391.949
56.918,1438.094
56.934,1449.815
56.949,1506.974
56.965,1474.740
56.980,1371.437
56.996,1274.735
57.012,1201.477
57.027,1084.970
57.043,1027.845
57.059,972.909
57.074,961.895
57.090,912.079
57.105,966.308
57.121,960.447
57.137,1078.402
57.152,1157.521
57.168,1282.785
57.184,1457.865
57.199,1534.054
57.215,1600.745
57.230,1647.631
57.246,1568.511
57.262,1522.333
57.277,1439.576
57.293,1388.278
57.309,1316.468
57.324,1318.691
57.340,1315.760
57.355,1340.651
57.371,1324.551
57.387,1339.203
57.402,1353.855
57.418,1361.164
57.434,1380.969
57.449,1384.607
57.465,1382.417
57.480,1408.790
57.496,1394.880
57.512,1406.601
57.527,1432.974
57.543,1457.158
57.559,1441.765
57.574,1432.233
57.590,1490.840
57.605,1469.587
57.621,1484.238
57.637,1495.960
57.652,1501.821
57.668,1487.910
57.684,1448.367
57.699,1427.113
57.715,1387.537
57.730,1405.860
57.746,1478.378
57.762,1652.750
57.777,1830.761
57.793,1980.208
57.809,2064.481
57.824,2058.620
57.840,1993.412
57.855,1879.869
57.871,1772.895
57.887,1627.118
57.902,1484.979
57.918,1366.317
57.934,1191.945
57.949,1063.750
57.965,967.049
57.980,873.985
57.996,900.358
58.012,956.776
58.027,1043.945
58.043,1103.293
58.059,1221.989
58.074,1242.502
58.090,1301.108
58.105,1238.830
58.121,1235.159
58.137,1208.786
58.152,1189.755
58.168,1199.995
58.184,1243.209
58.199,1260.084
58.215,1275.443
58.230,1358.974
58.246,1367.765
58.262,1408.790
58.277,1419.063
58.293,1433.715
58.309,1456.417
58.324,1464.467
58.340,1449.074
58.355,1491.581
58.371,1475.447
58.387,1468.138
58.402,1453.487
58.418,1472.517
58.434,1449.074
58.449,1452.005
58.465,1438.094
58.480,1428.562
58.496,1432.233
58.512,1405.860
58.527,1451.297
58.543,1486.461
58.559,1534.054
58.574,1562.651
58.590,1620.516
58.605,1685.725
58.621,1745.039
58.637,1728.939
58.652,1660.800
58.668,1612.466
58.684,1528.194
58.699,1443.955
58.715,1340.651
58.730,1207.337
58.746,1090.831
58.762,993.422
58.777,885.706
58.793,828.581
58.809,841.751
58.824,923.801
58.840,1081.332
58.855,1287.164
58.871,1451.297
58.887,1610.243
58.902,1695.965
58.918,1699.636
58.934,1630.049
58.949,1583.870
58.965,1442.506
58.980,1353.114
58.996,1275.443
59.012,1238.830
59.027,1246.139
59.043,1236.641
59.059,1298.885
59.074,1287.164
59.090,1325.292
59.105,1364.094
59.121,1421.994
59.137,1394.880
59.152,1417.581
59.168,1452.005
59.184,1462.278
59.199,1453.487
59.215,1493.029
59.230,1495.960
59.246,1498.890
59.262,1517.954
59.277,1502.562
59.293,1479.860
59.309,1460.088
59.324,1387.537
59.340,1353.855
59.355,1359.715
59.371,1388.278
59.387,1528.194
59.402,1737.730
59.418,1907.691
59.434,1979.501
59.449,1928.203
59.465,1817.591
59.480,1605.124
59.496,1358.974
59.512,1192.686
59.527,1054.218
59.543,993.422
59.559,985.338
59.574,977.288
59.590,966.308
59.605,1005.143
59.621,1112.825
59.637,1202.184
59.652,1252.741
59.668,1340.651
59.684,1408.790
59.699,1439.576
59.715,1404.412
59.730,1420.512
59.746,1399.999
59.762,1380.228
59.777,1338.462
59.793,1359.715
59.809,1391.208
59.824,1415.392
59.840,1434.423
59.855,1497.442
59.871,1528.194
59.887,1542.845
59.902,1575.820
59.918,1572.149
59.934,1593.402
59.949,1592.661
59.965,1561.169
59.980,1523.815
59.996,1534.795
