00.000,1631.497
00.004,1652.750
00.008,1663.731
00.012,1633.686
00.016,1643.218
00.020,1659.352
00.023,1662.990
00.027,1664.472
00.031,1682.795
00.035,1697.447
00.039,1690.845
00.043,1653.491
00.047,1657.870
00.051,1657.870
00.055,1659.352
00.059,1652.009
00.063,1657.870
00.066,1647.631
00.070,1635.909
00.074,1601.452
00.078,1573.631
00.082,1561.169
00.086,1553.859
00.090,1569.960
00.094,1550.929
00.098,1542.138
00.102,1536.277
00.105,1519.403
00.109,1534.054
00.113,1510.612
00.117,1549.447
00.121,1540.656
00.125,1552.377
00.129,1591.213
00.133,1610.243
00.137,1653.491
00.141,1726.009
00.145,1736.989
00.148,1813.919
00.152,1823.452
00.156,1891.591
00.160,1939.183
00.164,1980.949
00.168,2023.456
00.172,2057.138
00.176,2084.994
00.180,2140.670
00.184,2145.049
00.188,2139.188
00.191,2142.860
00.195,2150.910
00.199,2139.929
00.203,2117.935
00.207,2071.790
00.211,2043.969
00.215,1972.158
00.219,1938.476
00.223,1879.869
00.227,1819.039
00.230,1749.452
00.234,1699.636
00.238,1588.283
00.242,1559.720
00.246,1456.417
00.250,1391.208
00.254,1339.944
00.258,1261.532
00.262,1194.875
00.266,1145.059
00.270,1086.452
00.273,1009.522
00.277,978.770
00.281,931.144
00.285,893.790
00.289,856.403
00.293,819.790
00.297,789.005
00.301,739.930
00.305,745.791
00.309,701.094
00.313,737.000
00.316,717.228
00.320,714.298
00.324,695.975
00.328,747.980
00.332,719.417
00.336,773.612
00.340,758.960
00.344,778.024
00.348,834.442
00.352,857.144
00.355,879.105
00.359,909.149
00.363,915.010
00.367,916.492
00.371,961.895
00.375,993.422
00.379,1012.452
00.383,1046.168
00.387,1104.034
00.391,1115.015
00.395,1125.288
00.398,1185.343
00.402,1189.014
00.406,1212.457
00.410,1274.735
00.414,1278.373
00.418,1286.457
00.422,1309.900
00.426,1350.924
00.430,1337.721
00.434,1353.114
00.438,1386.830
00.441,1421.994
00.445,1412.462
00.449,1413.203
00.453,1404.412
00.457,1434.423
00.461,1418.322
00.465,1455.676
00.469,1425.631
00.473,1431.492
00.477,1435.164
00.480,1452.005
00.484,1434.423
00.488,1416.133
00.492,1462.278
00.496,1424.183
00.500,1461.537
00.504,1438.835
00.508,1464.467
00.512,1473.258
00.516,1468.879
00.520,1504.044
00.523,1482.790
00.527,1482.790
00.531,1490.099
00.535,1500.372
00.539,1516.472
00.543,1520.144
00.547,1479.119
00.551,1494.511
00.555,1471.069
00.559,1468.879
00.563,1500.372
00.566,1475.447
00.570,1463.019
00.574,1465.208
00.578,1485.720
00.582,1472.517
00.586,1454.228
00.590,1455.676
00.594,1466.656
00.598,1445.437
00.602,1487.910
00.605,1493.770
00.609,1468.138
00.613,1491.581
00.617,1525.263
00.621,1519.403
00.625,1547.258
00.629,1567.029
00.633,1596.333
00.637,1646.149
00.641,1689.363
00.645,1709.875
00.648,1723.820
00.652,1740.661
00.656,1777.307
00.660,1810.248
00.664,1824.900
00.668,1852.755
00.672,1862.287
00.676,1871.785
00.680,1905.501
00.684,1878.387
00.688,1877.646
00.691,1868.148
00.695,1868.855
00.699,1876.939
00.703,1851.273
00.707,1837.362
00.711,1805.869
00.715,1783.168
00.719,1746.521
00.723,1750.900
00.727,1697.447
00.730,1702.566
00.734,1663.731
00.738,1621.965
00.742,1576.561
00.746,1550.929
00.750,1539.208
00.754,1490.099
00.758,1477.670
00.762,1472.517
00.766,1419.063
00.770,1418.322
00.773,1375.108
00.777,1333.342
00.781,1303.298
00.785,1312.830
00.789,1284.234
00.793,1208.786
00.797,1186.084
00.801,1129.666
00.805,1120.134
00.809,1080.591
00.813,1016.865
00.816,967.756
00.820,895.238
00.824,887.188
00.828,836.631
00.832,767.751
00.836,752.392
00.840,687.184
00.844,669.602
00.848,628.577
00.852,572.159
00.855,554.577
00.859,483.508
00.863,498.900
00.867,468.856
00.871,410.249
00.875,379.497
00.879,392.667
00.883,388.288
00.887,372.154
00.891,367.035
00.895,361.174
00.898,361.174
00.902,358.244
00.906,370.706
00.910,386.065
00.914,373.636
00.918,424.160
00.922,435.174
00.926,471.079
00.930,529.686
00.934,538.477
00.938,597.084
00.941,685.702
00.945,734.810
00.949,802.916
00.953,883.517
00.957,927.472
00.961,1018.313
00.965,1085.711
00.969,1140.647
00.973,1182.413
00.977,1272.512
00.980,1340.651
00.984,1394.139
00.988,1435.905
00.992,1455.676
00.996,1530.417
01.000,1519.403
01.004,1577.302
01.008,1550.188
01.012,1578.010
01.016,1569.219
01.020,1563.358
01.023,1574.372
01.027,1531.865
01.031,1490.840
01.035,1498.890
01.039,1449.074
01.043,1425.631
01.047,1382.417
01.051,1333.342
01.055,1274.735
01.059,1213.905
01.063,1165.571
01.066,1141.388
01.070,1090.831
01.074,1055.667
01.078,983.890
01.082,987.561
01.086,945.795
01.090,926.731
01.094,902.581
01.098,889.378
01.102,887.188
01.105,861.523
01.109,890.860
01.113,888.637
01.117,907.701
01.121,897.428
01.125,964.118
01.129,979.477
01.133,1024.915
01.137,1057.149
01.141,1084.970
01.145,1095.243
01.148,1179.482
01.152,1207.337
01.156,1265.203
01.160,1307.677
01.164,1348.735
01.168,1374.367
01.172,1400.740
01.176,1422.701
01.180,1493.029
01.184,1514.283
01.188,1522.333
01.191,1575.079
01.195,1602.193
01.199,1609.536
01.203,1632.979
01.207,1661.541
01.211,1671.073
01.215,1684.243
01.219,1708.427
01.223,1741.402
01.227,1705.497
01.230,1715.029
01.234,1725.268
01.238,1713.547
01.242,1678.382
01.246,1646.890
01.250,1630.049
01.254,1605.865
01.258,1596.333
01.262,1563.358
01.266,1555.308
01.270,1500.372
01.273,1507.681
01.277,1455.676
01.281,1420.512
01.285,1410.272
01.289,1391.949
01.293,1368.506
01.297,1355.303
01.301,1298.885
01.305,1282.044
01.309,1287.164
01.313,1295.248
01.316,1242.502
01.320,1264.462
01.324,1235.159
01.328,1268.134
01.332,1259.343
01.336,1252.741
01.340,1279.855
01.344,1249.070
01.348,1259.343
01.352,1306.228
01.355,1273.253
01.359,1294.507
01.363,1311.348
01.367,1320.880
01.371,1336.273
01.375,1361.905
01.379,1369.248
01.383,1350.183
01.387,1357.526
01.391,1394.880
01.395,1425.631
01.398,1408.049
01.402,1410.272
01.406,1450.556
01.410,1432.233
01.414,1444.696
01.418,1481.308
01.422,1453.487
01.426,1503.303
01.430,1482.790
01.434,1512.094
01.438,1522.333
01.441,1512.094
01.445,1533.347
01.449,1542.845
01.453,1521.626
01.457,1553.859
01.461,1565.581
01.465,1547.999
01.469,1547.999
01.473,1551.636
01.477,1557.497
01.480,1571.442
01.484,1567.029
01.488,1568.511
01.492,1556.049
01.496,1549.447
01.500,1556.790
01.504,1551.636
01.508,1553.118
01.512,1547.258
01.516,1496.701
01.520,1513.542
01.523,1460.796
01.527,1444.696
01.531,1444.696
01.535,1416.840
01.539,1349.442
01.543,1341.392
01.547,1333.342
01.551,1278.373
01.555,1238.089
01.559,1233.710
01.563,1218.318
01.566,1172.880
01.570,1147.248
01.574,1167.761
01.578,1158.970
01.582,1147.989
01.586,1135.527
01.590,1143.577
01.594,1149.438
01.598,1155.298
01.602,1168.502
01.605,1161.900
01.609,1233.710
01.613,1231.487
01.617,1257.153
01.621,1315.760
01.625,1385.348
01.629,1425.631
01.633,1435.164
01.637,1479.119
01.641,1558.238
01.645,1564.840
01.648,1608.054
01.652,1646.890
01.656,1695.965
01.660,1717.959
01.664,1734.800
01.668,1790.477
01.672,1777.307
01.676,1790.477
01.680,1801.457
01.684,1780.945
01.688,1758.243
01.691,1778.755
01.695,1758.243
01.699,1730.388
01.703,1705.497
01.707,1638.099
01.711,1616.845
01.715,1578.751
01.719,1577.302
01.723,1508.422
01.727,1460.088
01.730,1430.785
01.734,1386.830
01.738,1358.974
01.742,1341.392
01.746,1293.025
01.750,1253.482
01.754,1263.721
01.758,1226.368
01.762,1189.755
01.766,1167.020
01.770,1147.248
01.773,1139.198
01.777,1157.521
01.781,1147.248
01.785,1134.786
01.789,1142.870
01.793,1144.318
01.797,1145.800
01.801,1149.438
01.805,1137.009
01.809,1137.009
01.813,1133.338
01.816,1189.755
01.820,1187.532
01.824,1180.223
01.828,1223.437
01.832,1230.780
01.836,1273.994
01.840,1260.791
01.844,1299.626
01.848,1309.159
01.852,1320.880
01.855,1343.582
01.859,1391.949
01.863,1419.063
01.867,1432.974
01.871,1429.303
01.875,1446.885
01.879,1490.840
01.883,1482.049
01.887,1531.124
01.891,1549.447
01.895,1556.049
01.898,1535.536
01.902,1550.929
01.906,1558.238
01.910,1580.940
01.914,1583.163
01.918,1580.233
01.922,1580.233
01.926,1584.611
01.930,1578.010
01.934,1591.213
01.938,1607.313
01.941,1610.984
01.945,1565.581
01.949,1565.581
01.953,1583.870
01.957,1577.302
01.961,1533.347
01.965,1554.567
01.969,1515.765
01.973,1542.138
01.977,1495.960
01.980,1531.124
01.984,1494.511
01.988,1477.670
01.992,1488.651
01.996,1458.606
02.000,1480.601
02.004,1481.308
02.008,1456.417
02.012,1447.626
02.016,1424.183
02.020,1457.865
02.023,1425.631
02.027,1429.303
02.031,1410.272
02.035,1452.746
02.039,1423.442
02.043,1418.322
02.047,1406.601
02.051,1409.531
02.055,1408.049
02.059,1451.297
02.063,1445.437
02.066,1442.506
02.070,1429.303
02.074,1445.437
02.078,1461.537
02.082,1505.492
02.086,1487.910
02.090,1531.124
02.094,1503.303
02.098,1546.517
02.102,1539.915
02.105,1597.074
02.109,1577.302
02.113,1608.054
02.117,1641.029
02.121,1645.408
02.125,1637.358
02.129,1653.491
02.133,1662.990
02.137,1712.098
02.141,1711.357
02.145,1733.318
02.148,1741.402
02.152,1733.318
02.156,1729.680
02.160,1760.432
02.164,1761.173
02.168,1753.831
02.172,1729.680
02.176,1726.750
02.180,1725.268
02.184,1722.338
02.188,1758.243
02.191,1720.889
02.195,1720.889
02.199,1749.452
02.203,1739.179
02.207,1715.029
02.211,1739.179
02.215,1733.318
02.219,1701.084
02.223,1694.516
02.227,1692.293
02.230,1676.934
02.234,1704.756
02.238,1701.825
02.242,1676.193
02.246,1652.009
02.250,1676.934
02.254,1668.850
02.258,1642.477
02.262,1613.915
02.266,1601.452
02.270,1589.024
02.273,1580.940
02.277,1575.820
02.281,1581.681
02.285,1553.859
02.289,1544.327
02.293,1526.004
02.297,1528.935
02.301,1519.403
02.305,1498.183
02.309,1476.188
02.313,1440.283
02.316,1424.183
02.320,1406.601
02.324,1415.392
02.328,1398.551
02.332,1386.830
02.336,1390.467
02.340,1357.526
02.344,1361.164
02.348,1345.805
02.352,1308.418
02.355,1298.885
02.359,1319.398
02.363,1334.083
02.367,1331.860
02.371,1315.760
02.375,1304.746
02.379,1326.741
02.383,1342.133
02.387,1358.974
02.391,1367.765
02.395,1372.178
02.398,1379.487
02.402,1378.746
02.406,1406.601
02.410,1391.949
02.414,1397.069
02.418,1419.771
02.422,1461.537
02.426,1460.088
02.430,1452.746
02.434,1503.303
02.438,1497.442
02.441,1522.333
02.445,1542.845
02.449,1539.915
02.453,1580.940
02.457,1583.163
02.461,1578.751
02.465,1602.193
02.469,1590.472
02.473,1613.915
02.477,1575.079
02.480,1567.770
02.484,1560.427
02.488,1509.163
02.492,1521.626
02.496,1469.587
02.500,1416.133
02.504,1380.969
02.508,1361.164
02.512,1290.094
02.516,1254.930
02.520,1183.895
02.523,1134.786
02.527,1105.482
02.531,1024.915
02.535,986.820
02.539,917.940
02.543,900.358
02.547,830.771
02.551,821.980
02.555,772.905
02.559,748.721
02.563,727.467
02.566,692.303
02.570,710.626
02.574,689.373
02.578,694.493
02.582,692.303
02.586,711.367
02.590,731.139
02.594,717.935
02.598,757.512
02.602,797.055
02.605,821.980
02.609,843.233
02.613,860.074
02.617,866.676
02.621,923.801
02.625,970.686
02.629,973.617
02.633,989.010
02.637,1020.502
02.641,1087.193
02.645,1093.054
02.648,1131.148
02.652,1155.298
02.656,1213.905
02.660,1227.850
02.664,1264.462
02.668,1286.457
02.672,1340.651
02.676,1361.164
02.680,1383.158
02.684,1400.740
02.688,1422.701
02.691,1491.581
02.695,1487.169
02.699,1528.935
02.703,1526.004
02.707,1582.422
02.711,1564.840
02.715,1597.074
02.719,1616.104
02.723,1613.174
02.727,1636.617
02.730,1634.427
02.734,1638.099
02.738,1672.522
02.742,1670.332
02.746,1662.990
02.750,1639.547
02.754,1629.308
02.758,1614.656
02.762,1610.984
02.766,1608.054
02.770,1624.895
02.773,1584.611
02.777,1567.029
02.781,1584.611
02.785,1569.219
02.789,1523.815
02.793,1535.536
02.797,1492.322
02.801,1509.904
02.805,1465.949
02.809,1489.392
02.813,1435.905
02.816,1465.949
02.820,1416.840
02.824,1412.462
02.828,1442.506
02.832,1431.492
02.836,1403.671
02.840,1391.208
02.844,1408.049
02.848,1434.423
02.852,1399.258
02.855,1409.531
02.859,1402.930
02.863,1408.049
02.867,1414.651
02.871,1429.303
02.875,1432.974
02.879,1437.353
02.883,1433.715
02.887,1452.746
02.891,1476.188
02.895,1441.765
02.898,1463.019
02.902,1464.467
02.906,1485.720
02.910,1452.005
02.914,1469.587
02.918,1487.910
02.922,1463.726
02.926,1453.487
02.930,1489.392
02.934,1463.726
02.938,1446.144
02.941,1484.979
02.945,1460.088
02.949,1459.347
02.953,1459.347
02.957,1443.955
02.961,1481.308
02.965,1459.347
02.969,1461.537
02.973,1452.005
02.977,1480.601
02.980,1461.537
02.984,1465.208
02.988,1486.461
02.992,1464.467
02.996,1499.631
03.000,1484.238
03.004,1475.447
03.008,1505.492
03.012,1480.601
03.016,1517.213
03.020,1499.631
03.023,1509.163
03.027,1508.422
03.031,1523.815
03.035,1509.904
03.039,1520.144
03.043,1556.049
03.047,1518.695
03.051,1552.377
03.055,1533.347
03.059,1555.308
03.063,1520.144
03.066,1526.004
03.070,1553.118
03.074,1528.194
03.078,1518.695
03.082,1546.517
03.086,1532.606
03.090,1526.004
03.094,1537.726
03.098,1572.890
03.102,1562.651
03.105,1576.561
03.109,1612.466
03.113,1643.959
03.117,1670.332
03.121,1698.895
03.125,1750.193
03.129,1804.387
03.133,1821.970
03.137,1890.109
03.141,1918.671
03.145,1937.735
03.148,2001.462
03.152,2020.526
03.156,2046.899
03.160,2063.740
03.164,2099.645
03.168,2109.885
03.172,2125.277
03.176,2105.506
03.180,2131.138
03.184,2107.695
03.188,2093.044
03.191,2076.910
03.195,2029.317
03.199,1988.999
03.203,1950.905
03.207,1901.089
03.211,1861.546
03.215,1835.914
03.219,1745.039
03.223,1698.154
03.227,1645.408
03.230,1580.940
03.234,1536.985
03.238,1479.119
03.242,1444.696
03.246,1386.089
03.250,1327.482
03.254,1306.228
03.258,1290.835
03.262,1216.836
03.266,1231.487
03.270,1197.064
03.273,1171.432
03.277,1151.661
03.281,1112.825
03.285,1120.875
03.289,1139.198
03.293,1134.079
03.297,1130.407
03.301,1126.736
03.305,1126.736
03.309,1133.338
03.313,1137.009
03.316,1143.577
03.320,1150.179
03.324,1135.527
03.328,1163.382
03.332,1159.711
03.336,1180.964
03.340,1190.463
03.344,1178.741
03.348,1186.084
03.352,1199.995
03.355,1241.019
03.359,1238.089
03.363,1268.875
03.367,1286.457
03.371,1289.387
03.375,1279.855
03.379,1301.108
03.383,1319.398
03.387,1337.014
03.391,1315.760
03.395,1319.398
03.398,1338.462
03.402,1361.164
03.406,1372.885
03.410,1371.437
03.414,1323.069
03.418,1318.691
03.422,1318.691
03.426,1302.557
03.430,1312.089
03.434,1310.607
03.438,1306.969
03.441,1249.811
03.445,1252.000
03.449,1241.760
03.453,1210.268
03.457,1221.248
03.461,1157.521
03.465,1185.343
03.469,1170.691
03.473,1143.577
03.477,1123.806
03.480,1123.065
03.484,1122.357
03.488,1115.756
03.492,1111.343
03.496,1076.920
03.500,1080.591
03.504,1114.273
03.508,1120.134
03.512,1127.477
03.516,1137.009
03.520,1140.647
03.523,1123.065
03.527,1175.811
03.531,1180.964
03.535,1171.432
03.539,1229.298
03.543,1211.716
03.547,1254.930
03.551,1233.710
03.555,1283.526
03.559,1304.039
03.563,1274.735
03.566,1319.398
03.570,1312.830
03.574,1324.551
03.578,1350.924
03.582,1372.885
03.586,1381.676
03.590,1395.621
03.594,1400.740
03.598,1408.790
03.602,1421.253
03.605,1425.631
03.609,1406.601
03.613,1403.671
03.617,1417.581
03.621,1434.423
03.625,1432.974
03.629,1420.512
03.633,1438.094
03.637,1452.005
03.641,1474.740
03.645,1479.119
03.648,1461.537
03.652,1449.815
03.656,1495.252
03.660,1468.879
03.664,1482.049
03.668,1485.720
03.672,1490.840
03.676,1460.796
03.680,1484.238
03.684,1490.840
03.688,1467.397
03.691,1490.099
03.695,1455.676
03.699,1486.461
03.703,1484.979
03.707,1457.158
03.711,1490.099
03.715,1450.556
03.719,1462.278
03.723,1464.467
03.727,1429.303
03.730,1418.322
03.734,1425.631
03.738,1449.074
03.742,1430.785
03.746,1411.721
03.750,1403.671
03.754,1434.423
03.758,1408.049
03.762,1416.133
03.766,1431.492
03.770,1409.531
03.773,1420.512
03.777,1418.322
03.781,1446.144
03.785,1416.133
03.789,1416.840
03.793,1419.063
03.797,1397.810
03.801,1427.113
03.805,1394.880
03.809,1416.133
03.813,1380.228
03.816,1360.456
03.820,1397.810
03.824,1389.760
03.828,1374.367
03.832,1367.024
03.836,1366.317
03.840,1352.373
03.844,1343.582
03.848,1308.418
03.852,1309.159
03.855,1317.209
03.859,1321.621
03.863,1322.328
03.867,1332.601
03.871,1356.785
03.875,1376.557
03.879,1428.562
03.883,1454.228
03.887,1470.328
03.891,1482.049
03.895,1529.676
03.898,1563.358
03.902,1608.054
03.906,1665.920
03.910,1739.179
03.914,1756.761
03.918,1820.521
03.922,1865.217
03.926,1919.412
03.930,1964.849
03.934,1999.272
03.938,2025.646
03.941,2064.481
03.945,2068.860
03.949,2112.815
03.953,2087.924
03.957,2099.645
03.961,2100.353
03.965,2093.785
03.969,2071.049
03.973,2040.297
03.977,1967.780
03.980,1924.532
03.984,1904.760
03.988,1854.203
03.992,1783.168
03.996,1711.357
04.000,1675.452
04.004,1574.372
04.008,1544.327
04.012,1476.929
04.016,1372.885
04.020,1344.323
04.023,1275.443
04.027,1206.596
04.031,1150.179
04.035,1050.547
04.039,1041.756
04.043,977.288
04.047,933.333
04.051,906.219
04.055,835.890
04.059,841.010
04.063,783.885
04.066,802.916
04.070,787.556
04.074,769.974
04.078,747.239
04.082,778.024
04.086,769.233
04.090,769.974
04.094,805.846
04.098,853.472
04.102,857.885
04.105,857.885
04.109,887.929
04.113,926.024
04.117,956.776
04.121,987.561
04.125,1032.965
04.129,1052.736
04.133,1101.104
04.137,1125.995
04.141,1140.647
04.145,1178.034
04.148,1202.925
04.152,1236.641
04.156,1233.710
04.160,1298.178
04.164,1276.925
04.168,1342.133
04.172,1317.209
04.176,1371.437
04.180,1353.114
04.184,1368.506
04.188,1389.019
04.191,1413.203
04.195,1417.581
04.199,1378.746
04.203,1394.880
04.207,1413.910
04.211,1398.551
04.215,1374.367
04.219,1397.810
04.223,1408.790
04.227,1391.208
04.230,1356.044
04.234,1371.437
04.238,1388.278
04.242,1369.955
04.246,1328.930
04.250,1345.064
04.254,1313.537
04.258,1340.651
04.262,1317.209
04.266,1282.044
04.270,1317.209
04.273,1273.253
04.277,1306.228
04.281,1274.735
04.285,1264.462
04.289,1279.855
04.293,1264.462
04.297,1284.975
04.301,1298.178
04.305,1263.014
04.309,1298.178
04.313,1278.373
04.316,1300.367
04.320,1298.178
04.324,1294.507
04.328,1318.691
04.332,1335.532
04.336,1306.228
04.340,1334.083
04.344,1362.646
04.348,1371.437
04.352,1379.487
04.355,1383.899
04.359,1367.024
04.363,1364.835
04.367,1396.328
04.371,1359.715
04.375,1359.715
04.379,1392.690
04.383,1377.298
04.387,1383.158
04.391,1383.158
04.395,1412.462
04.398,1374.367
04.402,1422.701
04.406,1383.899
04.410,1427.854
04.414,1412.462
04.418,1413.910
04.422,1428.562
04.426,1416.133
04.430,1468.879
04.434,1438.094
04.438,1487.910
04.441,1471.810
04.445,1507.681
04.449,1477.670
04.453,1498.183
04.457,1530.417
04.461,1503.303
04.465,1542.138
04.469,1559.720
04.473,1529.676
04.477,1534.054
04.480,1536.985
04.484,1563.358
04.488,1578.010
04.492,1576.561
04.496,1583.870
04.500,1540.656
04.504,1536.985
04.508,1548.706
04.512,1564.099
04.516,1544.327
04.520,1551.636
04.523,1504.044
04.527,1520.885
04.531,1476.929
04.535,1487.169
04.539,1439.576
04.543,1448.367
04.547,1446.885
04.551,1395.621
04.555,1399.999
04.559,1368.506
04.563,1349.442
04.566,1334.083
04.570,1339.203
04.574,1338.462
04.578,1342.874
04.582,1355.303
04.586,1378.039
04.590,1381.676
04.594,1388.278
04.598,1410.272
04.602,1471.069
04.605,1499.631
04.609,1500.372
04.613,1572.149
04.617,1588.283
04.621,1646.890
04.625,1662.282
04.629,1679.864
04.633,1712.098
04.637,1775.084
04.641,1779.496
04.645,1830.761
04.648,1829.312
04.652,1828.571
04.656,1865.217
04.660,1862.994
04.664,1861.546
04.668,1871.785
04.672,1841.034
04.676,1840.293
04.680,1841.775
04.684,1791.959
04.688,1764.104
04.691,1755.313
04.695,1725.268
04.699,1687.915
04.703,1663.731
04.707,1611.725
04.711,1573.631
04.715,1575.820
04.719,1516.472
04.723,1513.542
04.727,1480.601
04.730,1468.879
04.734,1415.392
04.738,1395.621
04.742,1395.621
04.746,1405.860
04.750,1350.183
04.754,1346.512
04.758,1366.317
04.762,1342.874
04.766,1329.671
04.770,1331.860
04.773,1310.607
04.777,1336.273
04.781,1308.418
04.785,1329.671
04.789,1312.089
04.793,1319.398
04.797,1293.025
04.801,1327.482
04.805,1309.900
04.809,1295.955
04.813,1319.398
04.816,1296.696
04.820,1266.652
04.824,1306.969
04.828,1276.925
04.832,1275.443
04.836,1295.955
04.840,1262.273
04.844,1257.153
04.848,1293.025
04.852,1293.025
04.855,1300.367
04.859,1266.652
04.863,1308.418
04.867,1303.298
04.871,1314.278
04.875,1309.900
04.879,1321.621
04.883,1367.024
04.887,1366.317
04.891,1347.994
04.895,1368.506
04.898,1402.930
04.902,1427.113
04.906,1425.631
04.910,1437.353
04.914,1446.144
04.918,1439.576
04.922,1417.581
04.926,1424.183
04.930,1435.905
04.934,1434.423
04.938,1457.158
04.941,1430.044
04.945,1413.910
04.949,1425.631
04.953,1430.785
04.957,1405.119
04.961,1379.487
04.965,1372.885
04.969,1391.208
04.973,1400.740
04.977,1358.233
04.980,1349.442
04.984,1346.512
04.988,1372.885
04.992,1379.487
04.996,1337.721
05.000,1346.512
05.004,1361.164
05.008,1371.437
05.012,1376.557
05.016,1356.044
05.020,1354.596
05.023,1363.387
05.027,1384.607
05.031,1406.601
05.035,1416.840
05.039,1422.701
05.043,1428.562
05.047,1434.423
05.051,1432.974
05.055,1445.437
05.059,1445.437
05.063,1427.854
05.066,1416.133
05.070,1443.214
05.074,1448.367
05.078,1444.696
05.082,1453.487
05.086,1448.367
05.090,1453.487
05.094,1435.164
05.098,1416.840
05.102,1424.924
05.105,1440.283
05.109,1458.606
05.113,1465.208
05.117,1460.088
05.121,1448.367
05.125,1467.397
05.129,1424.924
05.133,1426.372
05.137,1452.746
05.141,1449.815
05.145,1457.158
05.148,1463.019
05.152,1430.044
05.156,1421.253
05.160,1438.094
05.164,1427.113
05.168,1450.556
05.172,1424.924
05.176,1414.651
05.180,1445.437
05.184,1453.487
05.188,1419.063
05.191,1447.626
05.195,1453.487
05.199,1413.910
05.203,1414.651
05.207,1445.437
05.211,1442.506
05.215,1452.746
05.219,1433.715
05.223,1427.113
05.227,1452.746
05.230,1439.576
05.234,1431.492
05.238,1421.253
05.242,1437.353
05.246,1419.063
05.250,1417.581
05.254,1446.885
05.258,1427.113
05.262,1424.924
05.266,1437.353
05.270,1436.646
05.273,1398.551
05.277,1406.601
05.281,1423.442
05.285,1371.437
05.289,1390.467
05.293,1364.835
05.297,1374.367
05.301,1346.512
05.305,1317.950
05.309,1298.178
05.313,1315.760
05.316,1286.457
05.320,1252.000
05.324,1276.925
05.328,1263.721
05.332,1243.209
05.336,1223.437
05.340,1243.950
05.344,1257.861
05.348,1243.209
05.352,1227.850
05.355,1264.462
05.359,1276.184
05.363,1272.512
05.367,1277.666
05.371,1280.596
05.375,1292.317
05.379,1322.328
05.383,1355.303
05.387,1367.024
05.391,1391.949
05.395,1408.790
05.398,1449.815
05.402,1476.188
05.406,1515.024
05.410,1507.681
05.414,1532.606
05.418,1559.720
05.422,1611.725
05.426,1598.522
05.430,1607.313
05.434,1646.890
05.438,1622.706
05.441,1643.959
05.445,1643.959
05.449,1610.984
05.453,1624.188
05.457,1591.954
05.461,1569.960
05.465,1570.701
05.469,1537.726
05.473,1501.821
05.477,1445.437
05.480,1450.556
05.484,1369.955
05.488,1371.437
05.492,1306.969
05.496,1271.064
05.500,1256.412
05.504,1200.736
05.508,1166.312
05.512,1145.800
05.516,1079.109
05.520,1030.775
05.523,1041.756
05.527,1001.472
05.531,984.631
05.535,955.327
05.539,951.656
05.543,942.124
05.547,915.010
05.551,926.731
05.555,928.954
05.559,923.801
05.563,912.820
05.566,927.472
05.570,975.099
05.574,975.840
05.578,991.199
05.582,997.060
05.586,1049.098
05.590,1071.800
05.594,1071.059
05.598,1095.984
05.602,1131.148
05.605,1174.362
05.609,1204.407
05.613,1213.198
05.617,1282.785
05.621,1281.303
05.625,1328.930
05.629,1328.930
05.633,1357.526
05.637,1405.119
05.641,1419.771
05.645,1427.113
05.648,1463.726
05.652,1441.024
05.656,1451.297
05.660,1473.258
05.664,1476.929
05.668,1476.188
05.672,1481.308
05.676,1501.113
05.680,1503.303
05.684,1517.213
05.688,1488.651
05.691,1466.656
05.695,1463.019
05.699,1451.297
05.703,1441.765
05.707,1447.626
05.711,1442.506
05.715,1419.063
05.719,1431.492
05.723,1437.353
05.727,1411.721
05.730,1389.019
05.734,1378.039
05.738,1387.537
05.742,1399.999
05.746,1387.537
05.750,1394.139
05.754,1411.721
05.758,1375.816
05.762,1406.601
05.766,1409.531
05.770,1386.089
05.773,1386.089
05.777,1397.810
05.781,1400.740
05.785,1407.342
05.789,1422.701
05.793,1430.785
05.797,1438.094
05.801,1481.308
05.805,1454.228
05.809,1454.935
05.813,1471.069
05.816,1495.960
05.820,1502.562
05.824,1484.979
05.828,1460.796
05.832,1468.138
05.836,1484.979
05.840,1495.960
05.844,1490.099
05.848,1454.935
05.852,1464.467
05.855,1487.169
05.859,1492.322
05.863,1449.815
05.867,1454.228
05.871,1476.929
05.875,1488.651
05.879,1491.581
05.883,1487.169
05.887,1451.297
05.891,1464.467
05.895,1474.740
05.898,1484.238
05.902,1498.890
05.906,1474.740
05.910,1468.879
05.914,1477.670
05.918,1490.099
05.922,1482.049
05.926,1493.770
05.930,1515.024
05.934,1520.885
05.938,1515.765
05.941,1526.745
05.945,1520.885
05.949,1497.442
05.953,1505.492
05.957,1530.417
05.961,1542.845
05.965,1554.567
05.969,1528.194
05.973,1545.068
05.977,1563.358
05.980,1545.776
05.984,1521.626
05.988,1528.194
05.992,1544.327
05.996,1547.999
06.000,1520.885
06.004,1529.676
06.008,1504.044
06.012,1498.890
06.016,1501.821
06.020,1512.835
06.023,1495.960
06.027,1487.169
06.031,1519.403
06.035,1526.004
06.039,1516.472
06.043,1499.631
06.047,1536.985
06.051,1551.636
06.055,1579.492
06.059,1587.542
06.063,1620.516
06.066,1652.009
06.070,1728.939
06.074,1757.502
06.078,1821.970
06.082,1868.855
06.086,1901.830
06.090,1947.267
06.094,2003.651
06.098,2047.606
06.102,2077.651
06.105,2126.726
06.109,2158.252
06.113,2177.283
06.117,2170.681
06.121,2182.402
06.125,2190.486
06.129,2167.751
06.133,2144.308
06.137,2104.024
06.141,2060.069
06.145,1976.571
06.148,1947.975
06.152,1853.496
06.156,1783.875
06.160,1708.427
06.164,1646.890
06.168,1566.288
06.172,1523.074
06.176,1452.005
06.180,1346.512
06.184,1317.950
06.188,1230.039
06.191,1170.691
06.195,1128.218
06.199,1082.040
06.203,1041.015
06.207,1041.015
06.211,989.751
06.215,980.218
06.219,965.567
06.223,940.676
06.227,933.333
06.230,904.029
06.234,893.049
06.238,887.929
06.242,881.328
06.246,897.428
06.250,898.910
06.254,908.442
06.258,928.213
06.262,933.333
06.266,936.263
06.270,937.004
06.273,942.124
06.277,958.965
06.281,969.238
06.285,970.686
06.289,980.218
06.293,993.422
06.297,991.940
06.301,1019.795
06.305,1042.497
06.309,1040.307
06.313,1084.970
06.316,1089.382
06.320,1095.984
06.324,1111.343
06.328,1171.432
06.332,1190.463
06.336,1199.995
06.340,1232.969
06.344,1230.780
06.348,1248.362
06.352,1298.885
06.355,1297.437
06.359,1306.228
06.363,1315.760
06.367,1356.785
06.371,1330.412
06.375,1340.651
06.379,1375.108
06.383,1375.108
06.387,1370.696
06.391,1390.467
06.395,1408.790
06.398,1410.980
06.402,1405.860
06.406,1367.765
06.410,1396.328
06.414,1412.462
06.418,1372.885
06.422,1386.830
06.426,1378.746
06.430,1365.576
06.434,1372.178
06.438,1405.860
06.441,1397.810
06.445,1365.576
06.449,1386.089
06.453,1408.790
06.457,1408.790
06.461,1365.576
06.465,1379.487
06.469,1409.531
06.473,1406.601
06.477,1405.119
06.480,1358.233
06.484,1368.506
06.488,1393.398
06.492,1392.690
06.496,1356.044
06.500,1377.298
06.504,1352.373
06.508,1348.735
06.512,1369.955
06.516,1374.367
06.520,1362.646
06.523,1386.830
06.527,1370.696
06.531,1367.024
06.535,1407.342
06.539,1417.581
06.543,1419.063
06.547,1387.537
06.551,1429.303
06.555,1437.353
06.559,1408.790
06.563,1424.183
06.566,1457.865
06.570,1470.328
06.574,1473.258
06.578,1438.094
06.582,1441.765
06.586,1473.999
06.590,1487.169
06.594,1452.746
06.598,1474.740
06.602,1491.581
06.605,1504.044
06.609,1508.422
06.613,1509.163
06.617,1476.929
06.621,1497.442
06.625,1523.074
06.629,1481.308
06.633,1482.049
06.637,1490.099
06.641,1495.252
06.645,1489.392
06.648,1496.701
06.652,1508.422
06.656,1522.333
06.660,1530.417
06.664,1523.074
06.668,1507.681
06.672,1493.029
06.676,1497.442
06.680,1497.442
06.684,1517.954
06.688,1541.397
06.691,1542.845
06.695,1544.327
06.699,1547.258
06.703,1547.258
06.707,1551.636
06.711,1560.427
06.715,1560.427
06.719,1569.219
06.723,1539.915
06.727,1547.999
06.730,1576.561
06.734,1590.472
06.738,1593.402
06.742,1582.422
06.746,1572.149
06.750,1561.169
06.754,1594.143
06.758,1581.681
06.762,1581.681
06.766,1583.870
06.770,1593.402
06.773,1580.940
06.777,1556.790
06.781,1575.820
06.785,1577.302
06.789,1545.068
06.793,1522.333
06.797,1534.054
06.801,1510.612
06.805,1488.651
06.809,1470.328
06.813,1459.347
06.816,1463.726
06.820,1452.005
06.824,1394.880
06.828,1417.581
06.832,1372.885
06.836,1389.760
06.840,1359.715
06.844,1315.760
06.848,1331.153
06.852,1309.900
06.855,1286.457
06.859,1312.830
06.863,1307.677
06.867,1271.805
06.871,1273.994
06.875,1272.512
06.879,1275.443
06.883,1283.526
06.887,1292.317
06.891,1345.064
06.895,1349.442
06.898,1331.153
06.902,1390.467
06.906,1375.108
06.910,1425.631
06.914,1425.631
06.918,1448.367
06.922,1484.238
06.926,1493.029
06.930,1496.701
06.934,1516.472
06.938,1553.118
06.941,1585.352
06.945,1593.402
06.949,1573.631
06.953,1575.079
06.957,1570.701
06.961,1592.661
06.965,1601.452
06.969,1580.233
06.973,1564.099
06.977,1550.188
06.980,1536.985
06.984,1523.815
06.988,1491.581
06.992,1471.810
06.996,1405.860
07.000,1390.467
07.004,1379.487
07.008,1301.108
07.012,1306.969
07.016,1270.323
07.020,1232.969
07.023,1194.134
07.027,1111.343
07.031,1094.502
07.035,1054.218
07.039,1034.447
07.043,967.756
07.047,972.168
07.051,953.845
07.055,931.885
07.059,898.910
07.063,864.453
07.066,875.467
07.070,862.264
07.074,866.676
07.078,850.542
07.082,898.910
07.086,917.940
07.090,913.561
07.094,956.035
07.098,988.269
07.102,1004.402
07.105,1053.477
07.109,1085.711
07.113,1110.636
07.117,1142.129
07.121,1183.895
07.125,1241.019
07.129,1258.602
07.133,1283.526
07.137,1346.512
07.141,1338.462
07.145,1366.317
07.148,1404.412
07.152,1441.765
07.156,1437.353
07.160,1453.487
07.164,1486.461
07.168,1506.233
07.172,1522.333
07.176,1526.004
07.180,1529.676
07.184,1528.194
07.188,1532.606
07.191,1536.277
07.195,1523.815
07.199,1493.029
07.203,1481.308
07.207,1479.119
07.211,1477.670
07.215,1440.283
07.219,1421.994
07.223,1429.303
07.227,1412.462
07.230,1378.039
07.234,1387.537
07.238,1342.874
07.242,1369.248
07.246,1334.083
07.250,1347.253
07.254,1321.621
07.258,1303.298
07.262,1295.955
07.266,1291.576
07.270,1299.626
07.273,1327.482
07.277,1320.139
07.281,1301.108
07.285,1286.457
07.289,1312.830
07.293,1295.248
07.297,1284.975
07.301,1273.994
07.305,1314.278
07.309,1294.507
07.313,1295.248
07.316,1298.885
07.320,1279.114
07.324,1322.328
07.328,1290.835
07.332,1299.626
07.336,1341.392
07.340,1326.000
07.344,1343.582
07.348,1369.248
07.352,1350.924
07.355,1361.905
07.359,1351.665
07.363,1399.999
07.367,1378.039
07.371,1382.417
07.375,1380.969
07.379,1423.442
07.383,1394.139
07.387,1404.412
07.391,1421.253
07.395,1449.815
07.398,1423.442
07.402,1465.949
07.406,1473.999
07.410,1441.765
07.414,1451.297
07.418,1458.606
07.422,1494.511
07.426,1498.183
07.430,1479.860
07.434,1494.511
07.438,1493.770
07.441,1525.263
07.445,1512.094
07.449,1495.252
07.453,1512.835
07.457,1530.417
07.461,1543.586
07.465,1547.258
07.469,1555.308
07.473,1551.636
07.477,1558.979
07.480,1524.556
07.484,1522.333
07.488,1536.277
07.492,1535.536
07.496,1553.118
07.500,1517.954
07.504,1495.960
07.508,1504.044
07.512,1506.233
07.516,1448.367
07.520,1464.467
07.523,1416.840
07.527,1424.183
07.531,1399.999
07.535,1393.398
07.539,1401.481
07.543,1353.855
07.547,1358.233
07.551,1335.532
07.555,1378.039
07.559,1338.462
07.563,1371.437
07.566,1386.830
07.570,1378.039
07.574,1394.139
07.578,1452.746
07.582,1449.074
07.586,1501.821
07.590,1493.029
07.594,1543.586
07.598,1591.954
07.602,1623.447
07.605,1625.636
07.609,1660.059
07.613,1695.965
07.617,1739.920
07.621,1776.566
07.625,1767.034
07.629,1811.730
07.633,1800.009
07.637,1850.566
07.641,1824.900
07.645,1856.426
07.648,1835.914
07.652,1822.711
07.656,1819.039
07.660,1802.939
07.664,1822.711
07.668,1802.198
07.672,1755.313
07.676,1734.059
07.680,1709.168
07.684,1678.382
07.688,1653.491
07.691,1616.104
07.695,1602.193
07.699,1576.561
07.703,1527.486
07.707,1506.974
07.711,1498.890
07.715,1461.537
07.719,1443.214
07.723,1393.398
07.727,1388.278
07.730,1367.024
07.734,1345.805
07.738,1313.537
07.742,1325.292
07.746,1323.069
07.750,1304.039
07.754,1279.855
07.758,1243.950
07.762,1236.641
07.766,1221.248
07.770,1207.337
07.773,1211.716
07.777,1228.557
07.781,1189.755
07.785,1158.970
07.789,1156.039
07.793,1164.830
07.797,1167.761
07.801,1143.577
07.805,1114.273
07.809,1114.273
07.813,1137.009
07.816,1098.914
07.820,1128.925
07.824,1106.964
07.828,1094.502
07.832,1116.497
07.836,1104.034
07.840,1118.686
07.844,1097.432
07.848,1137.716
07.852,1118.686
07.855,1164.830
07.859,1166.312
07.863,1153.850
07.867,1178.741
07.871,1160.452
07.875,1169.243
07.879,1204.407
07.883,1235.159
07.887,1208.786
07.891,1217.577
07.895,1230.780
07.898,1243.209
07.902,1293.766
07.906,1292.317
07.910,1302.557
07.914,1296.696
07.918,1325.292
07.922,1356.785
07.926,1359.715
07.930,1366.317
07.934,1354.596
07.938,1351.665
07.941,1386.830
07.945,1372.885
07.949,1369.955
07.953,1364.094
07.957,1362.646
07.961,1368.506
07.965,1391.208
07.969,1372.178
07.973,1358.233
07.977,1403.671
07.980,1361.905
07.984,1378.746
07.988,1392.690
07.992,1398.551
07.996,1404.412
08.000,1405.860
08.004,1399.999
08.008,1373.626
08.012,1391.208
08.016,1405.860
08.020,1403.671
08.023,1383.158
08.027,1405.119
08.031,1424.924
08.035,1435.164
08.039,1409.531
08.043,1454.228
08.047,1450.556
08.051,1460.088
08.055,1471.810
08.059,1438.835
08.063,1440.283
08.066,1445.437
08.070,1456.417
08.074,1448.367
08.078,1487.169
08.082,1472.517
08.086,1488.651
08.090,1491.581
08.094,1455.676
08.098,1448.367
08.102,1453.487
08.105,1456.417
08.109,1464.467
08.113,1472.517
08.117,1465.208
08.121,1481.308
08.125,1477.670
08.129,1465.208
08.133,1434.423
08.137,1436.646
08.141,1435.905
08.145,1457.865
08.148,1452.746
08.152,1471.069
08.156,1484.238
08.160,1477.670
08.164,1449.074
08.168,1451.297
08.172,1473.258
08.176,1470.328
08.180,1481.308
08.184,1464.467
08.188,1456.417
08.191,1469.587
08.195,1436.646
08.199,1434.423
08.203,1451.297
08.207,1464.467
08.211,1473.999
08.215,1457.865
08.219,1465.949
08.223,1468.138
08.227,1448.367
08.230,1427.113
08.234,1432.974
08.238,1440.283
08.242,1436.646
08.246,1439.576
08.250,1450.556
08.254,1471.069
08.258,1468.879
08.262,1435.905
08.266,1435.164
08.270,1447.626
08.273,1468.879
08.277,1472.517
08.281,1432.233
08.285,1424.924
08.289,1427.113
08.293,1438.835
08.297,1455.676
08.301,1421.994
08.305,1429.303
08.309,1391.949
08.313,1401.481
08.316,1394.880
08.320,1361.905
08.324,1353.855
08.328,1391.949
08.332,1361.905
08.336,1357.526
08.340,1382.417
08.344,1362.646
08.348,1405.119
08.352,1415.392
08.355,1397.069
08.359,1438.835
08.363,1475.447
08.367,1490.099
08.371,1517.213
08.375,1538.467
08.379,1583.163
08.383,1636.617
08.387,1670.332
08.391,1706.945
08.395,1753.123
08.398,1802.939
08.402,1848.343
08.406,1883.507
08.410,1938.476
08.414,1973.640
08.418,2002.203
08.422,2033.696
08.426,2029.317
08.430,2054.208
08.434,2073.980
08.438,2048.347
08.441,2060.069
08.445,2049.829
08.449,1993.412
08.453,1981.690
08.457,1936.994
08.461,1890.850
08.465,1845.412
08.469,1798.527
08.473,1754.572
08.477,1684.984
08.480,1624.895
08.484,1566.288
08.488,1498.183
08.492,1440.283
08.496,1388.278
08.500,1324.551
08.504,1293.025
08.508,1237.348
08.512,1168.502
08.516,1087.900
08.520,1077.661
08.523,1032.965
08.527,969.979
08.531,942.865
08.535,957.517
08.539,935.522
08.543,895.979
08.547,889.378
08.551,887.929
08.555,909.890
08.559,934.815
08.563,919.422
08.566,950.174
08.570,947.244
08.574,969.979
08.578,1006.592
08.582,997.801
08.586,1013.193
08.590,1064.458
08.594,1040.307
08.598,1059.338
08.602,1082.040
08.605,1139.939
08.609,1156.780
08.613,1173.621
08.617,1179.482
08.621,1183.154
08.625,1197.064
08.629,1198.546
08.633,1243.950
08.637,1242.502
08.641,1233.710
08.645,1229.298
08.648,1246.139
08.652,1264.462
08.656,1270.323
08.660,1287.905
08.664,1252.741
08.668,1283.526
08.672,1263.014
08.676,1302.557
08.680,1285.716
08.684,1278.373
08.688,1269.582
08.691,1270.323
08.695,1279.114
08.699,1292.317
08.703,1294.507
08.707,1264.462
08.711,1278.373
08.715,1293.766
08.719,1262.273
08.723,1295.248
08.727,1258.602
08.730,1275.443
08.734,1265.203
08.738,1293.025
08.742,1276.925
08.746,1302.557
08.750,1303.298
08.754,1266.652
08.758,1290.835
08.762,1309.159
08.766,1303.298
08.770,1294.507
08.773,1303.298
08.777,1325.292
08.781,1326.000
08.785,1328.223
08.789,1338.462
08.793,1356.044
08.797,1335.532
08.801,1331.153
08.805,1346.512
08.809,1361.164
08.813,1359.715
08.816,1367.024
08.820,1389.760
08.824,1366.317
08.828,1367.024
08.832,1415.392
08.836,1416.840
08.840,1392.690
08.844,1410.980
08.848,1419.771
08.852,1394.880
08.855,1419.771
08.859,1422.701
08.863,1416.840
08.867,1454.935
08.871,1430.785
08.875,1421.253
08.879,1432.974
08.883,1470.328
08.887,1443.955
08.891,1433.715
08.895,1470.328
08.898,1443.214
08.902,1437.353
08.906,1480.601
08.910,1475.447
08.914,1478.378
08.918,1467.397
08.922,1449.074
08.926,1493.029
08.930,1465.208
08.934,1468.138
08.938,1515.024
08.941,1479.860
08.945,1528.935
08.949,1495.252
08.953,1544.327
08.957,1533.347
08.961,1520.885
08.965,1548.706
08.969,1573.631
08.973,1577.302
08.977,1553.118
08.980,1575.079
08.984,1560.427
08.988,1594.143
08.992,1558.979
08.996,1600.745
09.000,1571.442
09.004,1590.472
09.008,1615.397
09.012,1590.472
09.016,1598.522
09.020,1580.940
09.023,1599.263
09.027,1584.611
09.031,1557.497
09.035,1575.820
09.039,1553.118
09.043,1538.467
09.047,1557.497
09.051,1515.765
09.055,1484.238
09.059,1509.904
09.063,1465.208
09.066,1443.214
09.070,1423.442
09.074,1421.994
09.078,1408.049
09.082,1383.158
09.086,1375.816
09.090,1364.094
09.094,1353.855
09.098,1358.233
09.102,1356.044
09.105,1356.044
09.109,1411.721
09.113,1426.372
09.117,1424.183
09.121,1492.322
09.125,1506.974
09.129,1541.397
09.133,1594.884
09.137,1646.890
09.141,1677.641
09.145,1738.471
09.148,1761.914
09.152,1839.552
09.156,1835.914
09.160,1869.596
09.164,1910.621
09.168,1916.482
09.172,1893.780
09.176,1901.089
09.180,1890.850
09.184,1876.198
09.188,1830.761
09.191,1802.939
09.195,1772.895
09.199,1726.750
09.203,1666.661
09.207,1616.845
09.211,1606.606
09.215,1532.606
09.219,1465.208
09.223,1430.785
09.227,1364.094
09.230,1326.000
09.234,1291.576
09.238,1260.791
09.242,1209.527
09.246,1175.811
09.250,1191.204
09.254,1161.159
09.258,1147.248
09.262,1118.686
09.266,1113.566
09.270,1093.054
09.273,1098.914
09.277,1066.681
09.281,1056.408
09.285,1079.850
09.289,1054.959
09.293,1090.831
09.297,1050.547
09.301,1090.123
09.305,1079.109
09.309,1065.199
09.313,1073.249
09.316,1071.800
09.320,1051.288
09.324,1059.338
09.328,1028.586
09.332,1068.129
09.336,1058.597
09.340,1052.736
09.344,1049.098
09.348,1035.895
09.352,1022.725
09.355,1024.915
09.359,1003.661
09.363,1021.243
09.367,1020.502
09.371,1022.725
09.375,1008.074
09.379,1049.806
09.383,1046.168
09.387,1062.268
09.391,1065.199
09.395,1068.129
09.398,1111.343
09.402,1149.438
09.406,1168.502
09.410,1161.900
09.414,1180.964
09.418,1208.786
09.422,1256.412
09.426,1280.596
09.430,1271.805
09.434,1279.114
09.438,1339.203
09.441,1320.880
09.445,1369.248
09.449,1356.785
09.453,1394.139
09.457,1360.456
09.461,1365.576
09.465,1378.039
09.469,1410.272
09.473,1413.910
09.477,1421.994
09.480,1424.183
09.484,1427.854
09.488,1429.303
09.492,1418.322
09.496,1408.049
09.500,1402.189
09.504,1446.144
09.508,1402.189
09.512,1408.790
09.516,1448.367
09.520,1405.119
09.523,1421.994
09.527,1448.367
09.531,1410.272
09.535,1416.840
09.539,1446.885
09.543,1406.601
09.547,1413.203
09.551,1432.233
09.555,1444.696
09.559,1441.024
09.563,1409.531
09.566,1408.049
09.570,1414.651
09.574,1428.562
09.578,1436.646
09.582,1457.158
09.586,1426.372
09.590,1419.063
09.594,1443.214
09.598,1465.208
09.602,1422.701
09.605,1438.094
09.609,1465.208
09.613,1441.765
09.617,1443.214
09.621,1432.974
09.625,1438.835
09.629,1466.656
09.633,1476.188
09.637,1459.347
09.641,1464.467
09.645,1468.138
09.648,1478.378
09.652,1509.904
09.656,1528.935
09.660,1534.795
09.664,1536.985
09.668,1534.054
09.672,1509.904
09.676,1506.233
09.680,1515.765
09.684,1545.776
09.688,1528.194
09.691,1501.821
09.695,1517.213
09.699,1536.277
09.703,1509.163
09.707,1488.651
09.711,1484.238
09.715,1480.601
09.719,1503.303
09.723,1494.511
09.727,1467.397
09.730,1463.726
09.734,1479.119
09.738,1502.562
09.742,1501.113
09.746,1480.601
09.750,1478.378
09.754,1482.790
09.758,1463.726
09.762,1468.138
09.766,1471.069
09.770,1490.840
09.773,1528.935
09.777,1524.556
09.781,1511.353
09.785,1561.169
09.789,1536.985
09.793,1569.219
09.797,1607.313
09.801,1599.263
09.805,1613.915
09.809,1629.308
09.813,1657.870
09.816,1652.009
09.820,1651.268
09.824,1670.332
09.828,1684.984
09.832,1660.800
09.836,1677.641
09.840,1654.199
09.844,1683.502
09.848,1657.129
09.852,1635.168
09.855,1641.029
09.859,1595.592
09.863,1610.984
09.867,1578.010
09.871,1551.636
09.875,1521.626
09.879,1508.422
09.883,1504.044
09.887,1481.308
09.891,1429.303
09.895,1439.576
09.898,1432.233
09.902,1388.278
09.906,1400.740
09.910,1353.114
09.914,1373.626
09.918,1334.791
09.922,1361.164
09.926,1321.621
09.930,1360.456
09.934,1326.741
09.938,1376.557
09.941,1388.278
09.945,1361.164
09.949,1381.676
09.953,1410.272
09.957,1468.138
09.961,1493.770
09.965,1518.695
09.969,1509.904
09.973,1563.358
09.977,1542.845
09.980,1600.004
09.984,1576.561
09.988,1602.934
09.992,1622.706
09.996,1583.870
10.000,1594.143
10.004,1563.358
10.008,1580.940
10.012,1537.726
10.016,1515.024
10.020,1482.790
10.023,1447.626
10.027,1369.955
10.031,1351.665
10.035,1281.303
10.039,1238.089
10.043,1183.895
10.047,1136.268
10.051,1101.845
10.055,1056.408
10.059,1030.034
10.063,980.218
10.066,944.313
10.070,906.219
10.074,854.954
10.078,800.726
10.082,816.860
10.086,771.423
10.090,782.403
10.094,773.612
10.098,728.208
10.102,762.632
10.105,763.373
10.109,775.835
10.113,778.765
10.117,807.328
10.121,842.492
10.125,831.512
10.129,846.163
10.133,875.467
10.137,900.358
10.141,957.517
10.145,997.060
10.148,986.079
10.152,1028.586
10.156,1062.268
10.160,1068.870
10.164,1112.825
10.168,1151.661
10.172,1169.950
10.176,1173.621
10.180,1189.014
10.184,1252.000
10.188,1261.532
10.191,1281.303
10.195,1277.666
10.199,1295.248
10.203,1306.228
10.207,1328.930
10.211,1346.512
10.215,1374.367
10.219,1383.899
10.223,1389.760
10.227,1394.139
10.230,1399.999
10.234,1403.671
10.238,1372.885
10.242,1402.189
10.246,1389.760
10.250,1372.178
10.254,1406.601
10.258,1383.899
10.262,1373.626
10.266,1377.298
10.270,1385.348
10.273,1420.512
10.277,1421.253
10.281,1406.601
10.285,1414.651
10.289,1410.272
10.293,1389.019
10.297,1421.994
10.301,1422.701
10.305,1419.771
10.309,1414.651
10.313,1419.063
10.316,1419.063
10.320,1412.462
10.324,1413.910
10.328,1410.272
10.332,1392.690
10.336,1399.258
10.340,1419.771
10.344,1415.392
10.348,1405.119
10.352,1397.810
10.355,1420.512
10.359,1418.322
10.363,1401.481
10.367,1393.398
10.371,1430.044
10.375,1402.189
10.379,1442.506
10.383,1422.701
10.387,1405.119
10.391,1405.119
10.395,1444.696
10.398,1438.835
10.402,1428.562
10.406,1394.139
10.410,1402.189
10.414,1409.531
10.418,1426.372
10.422,1395.621
10.426,1389.019
10.430,1385.348
10.434,1379.487
10.438,1358.974
10.441,1394.880
10.445,1386.089
10.449,1383.158
10.453,1370.696
10.457,1350.924
10.461,1352.373
10.465,1363.387
10.469,1389.019
10.473,1393.398
10.477,1376.557
10.480,1372.178
10.484,1373.626
10.488,1385.348
10.492,1403.671
10.496,1422.701
10.500,1428.562
10.504,1438.835
10.508,1449.815
10.512,1454.228
10.516,1460.796
10.520,1454.228
10.523,1501.113
10.527,1515.024
10.531,1488.651
10.535,1532.606
10.539,1507.681
10.543,1532.606
10.547,1517.954
10.551,1513.542
10.555,1555.308
10.559,1546.517
10.563,1516.472
10.566,1544.327
10.570,1515.765
10.574,1560.427
10.578,1524.556
10.582,1562.651
10.586,1523.074
10.590,1546.517
10.594,1550.929
10.598,1549.447
10.602,1545.776
10.605,1520.144
10.609,1526.004
10.613,1559.720
10.617,1533.347
10.621,1567.029
10.625,1578.751
10.629,1569.219
10.633,1602.193
10.637,1643.218
10.641,1649.820
10.645,1695.224
10.648,1727.457
10.652,1775.825
10.656,1829.312
10.660,1874.008
10.664,1950.198
10.668,1968.487
10.672,2024.164
10.676,2063.740
10.680,2110.626
10.684,2157.511
10.688,2170.681
10.691,2198.536
10.695,2220.531
10.699,2211.740
10.703,2215.377
10.707,2224.168
10.711,2172.163
10.715,2169.233
10.719,2102.576
10.723,2076.910
10.727,2034.437
10.730,1968.487
10.734,1911.362
10.738,1835.173
10.742,1780.237
10.746,1707.686
10.750,1643.218
10.754,1608.054
10.758,1545.776
10.762,1497.442
10.766,1435.164
10.770,1383.158
10.773,1359.715
10.777,1330.412
10.781,1265.203
10.785,1263.014
10.789,1239.571
10.793,1216.128
10.797,1192.686
10.801,1186.825
10.805,1169.950
10.809,1172.880
10.813,1166.312
10.816,1163.382
10.820,1164.089
10.824,1156.039
10.828,1146.507
10.832,1164.830
10.836,1153.850
10.840,1123.065
10.844,1160.452
10.848,1121.616
10.852,1124.547
10.855,1137.009
10.859,1106.964
10.863,1099.622
10.867,1117.204
10.871,1101.104
10.875,1052.029
10.879,1045.427
10.883,1060.079
10.887,1059.338
10.891,1049.098
10.895,1016.865
10.898,1024.174
10.902,1054.959
10.906,1013.934
10.910,1034.447
10.914,1063.009
10.918,1063.009
10.922,1094.502
10.926,1074.731
10.930,1122.357
10.934,1147.989
10.938,1170.691
10.941,1193.393
10.945,1216.128
10.949,1238.830
10.953,1243.950
10.957,1241.019
10.961,1298.885
10.965,1274.735
10.969,1326.000
10.973,1323.810
10.977,1328.223
10.980,1361.905
10.984,1337.721
10.988,1354.596
10.992,1364.835
10.996,1345.064
11.000,1321.621
11.004,1316.468
11.008,1326.000
11.012,1342.133
11.016,1304.746
11.020,1313.537
11.023,1292.317
11.027,1268.134
11.031,1302.557
11.035,1258.602
11.039,1287.905
11.043,1250.552
11.047,1283.526
11.051,1288.646
11.055,1260.791
11.059,1276.184
11.063,1279.114
11.066,1247.621
11.070,1273.253
11.074,1296.696
11.078,1292.317
11.082,1268.875
11.086,1304.039
11.090,1285.716
11.094,1284.234
11.098,1312.089
11.102,1273.994
11.105,1281.303
11.109,1329.671
11.113,1293.025
11.117,1315.760
11.121,1356.785
11.125,1366.317
11.129,1372.178
11.133,1386.830
11.137,1394.139
11.141,1397.810
11.145,1410.272
11.148,1414.651
11.152,1424.924
11.156,1427.854
11.160,1432.233
11.164,1430.044
11.168,1421.994
11.172,1413.203
11.176,1421.253
11.180,1430.044
11.184,1422.701
11.188,1408.049
11.191,1419.771
11.195,1434.423
11.199,1406.601
11.203,1403.671
11.207,1405.860
11.211,1402.189
11.215,1417.581
11.219,1411.721
11.223,1413.203
11.227,1424.924
11.230,1416.133
11.234,1411.721
11.238,1418.322
11.242,1426.372
11.246,1436.646
11.250,1443.955
11.254,1474.740
11.258,1440.283
11.262,1479.119
11.266,1483.531
11.270,1473.258
11.273,1470.328
11.277,1450.556
11.281,1476.929
11.285,1454.935
11.289,1453.487
11.293,1485.720
11.297,1482.790
11.301,1479.119
11.305,1453.487
11.309,1453.487
11.313,1482.049
11.316,1491.581
11.320,1460.088
11.324,1484.238
11.328,1502.562
11.332,1490.840
11.336,1487.169
11.340,1520.885
11.344,1485.720
11.348,1529.676
11.352,1501.821
11.355,1506.233
11.359,1535.536
11.363,1504.751
11.367,1526.745
11.371,1500.372
11.375,1517.954
11.379,1473.999
11.383,1452.005
11.387,1471.069
11.391,1430.785
11.395,1422.701
11.398,1402.189
11.402,1392.690
11.406,1377.298
11.410,1372.178
11.414,1352.373
11.418,1345.805
11.422,1357.526
11.426,1362.646
11.430,1317.950
11.434,1323.069
11.438,1334.083
11.441,1350.183
11.445,1378.746
11.449,1388.278
11.453,1405.860
11.457,1405.119
11.461,1416.840
11.465,1455.676
11.469,1482.790
11.473,1508.422
11.477,1524.556
11.480,1522.333
11.484,1566.288
11.488,1605.124
11.492,1627.826
11.496,1654.940
11.500,1648.338
11.504,1690.845
11.508,1709.875
11.512,1704.015
11.516,1688.656
11.520,1690.104
11.523,1712.806
11.527,1706.945
11.531,1706.945
11.535,1662.990
11.539,1672.522
11.543,1614.656
11.547,1578.010
11.551,1569.960
11.555,1523.815
11.559,1505.492
11.563,1444.696
11.566,1394.139
11.570,1355.303
11.574,1320.880
11.578,1272.512
11.582,1205.114
11.586,1135.527
11.590,1113.566
11.594,1070.318
11.598,1015.383
11.602,963.377
11.605,911.372
11.609,887.188
11.613,873.244
11.617,846.871
11.621,824.169
11.625,808.069
11.629,768.492
11.633,760.442
11.637,783.885
11.641,751.651
11.645,757.512
11.648,778.765
11.652,810.999
11.656,834.442
11.660,827.099
11.664,876.915
11.668,898.910
11.672,898.169
11.676,947.244
11.680,984.631
11.684,989.751
11.688,1014.642
11.691,1071.800
11.695,1109.895
11.699,1119.427
11.703,1178.034
11.707,1200.736
11.711,1219.766
11.715,1284.975
11.719,1298.885
11.723,1345.064
11.727,1353.114
11.730,1369.955
11.734,1387.537
11.738,1433.715
11.742,1477.670
11.746,1468.879
11.750,1507.681
11.754,1489.392
11.758,1504.044
11.762,1528.194
11.766,1528.935
11.770,1523.074
11.773,1526.004
11.777,1536.277
11.781,1550.929
11.785,1521.626
11.789,1543.586
11.793,1512.835
11.797,1514.283
11.801,1490.840
11.805,1504.044
11.809,1464.467
11.813,1450.556
11.816,1435.164
11.820,1411.721
11.824,1420.512
11.828,1421.994
11.832,1403.671
11.836,1384.607
11.840,1367.024
11.844,1369.248
11.848,1348.735
11.852,1355.303
11.855,1353.855
11.859,1352.373
11.863,1356.785
11.867,1358.974
11.871,1337.014
11.875,1342.133
11.879,1354.596
11.883,1361.164
11.887,1375.816
11.891,1410.980
11.895,1419.063
11.898,1422.701
11.902,1393.398
11.906,1435.905
11.910,1413.910
11.914,1453.487
11.918,1419.771
11.922,1435.905
11.926,1440.283
11.930,1440.283
11.934,1481.308
11.938,1458.606
11.941,1449.815
11.945,1459.347
11.949,1471.810
11.953,1492.322
11.957,1472.517
11.961,1461.537
11.965,1498.890
11.969,1482.049
11.973,1507.681
11.977,1516.472
11.980,1490.099
11.984,1541.397
11.988,1531.124
11.992,1535.536
11.996,1531.865
12.000,1563.358
12.004,1575.820
12.008,1548.706
12.012,1558.238
12.016,1561.910
12.020,1572.149
12.023,1576.561
12.027,1590.472
12.031,1613.174
12.035,1621.965
12.039,1632.979
12.043,1632.979
12.047,1594.884
12.051,1598.522
12.055,1600.004
12.059,1600.745
12.063,1614.656
12.066,1632.979
12.070,1633.686
12.074,1633.686
12.078,1606.606
12.082,1599.263
12.086,1586.093
12.090,1577.302
12.094,1583.870
12.098,1607.313
12.102,1556.790
12.105,1548.706
12.109,1558.238
12.113,1565.581
12.117,1558.979
12.121,1501.113
12.125,1491.581
12.129,1496.701
12.133,1466.656
12.137,1431.492
12.141,1450.556
12.145,1432.233
12.148,1378.746
12.152,1402.189
12.156,1353.114
12.160,1353.114
12.164,1353.114
12.168,1341.392
12.172,1315.019
12.176,1297.437
12.180,1344.323
12.184,1340.651
12.188,1325.292
12.191,1374.367
12.195,1392.690
12.199,1386.830
12.203,1447.626
12.207,1488.651
12.211,1506.233
12.215,1550.929
12.219,1602.193
12.223,1690.845
12.227,1709.875
12.230,1761.914
12.234,1811.730
12.238,1860.805
12.242,1906.950
12.246,1954.576
12.250,2007.323
12.254,2010.994
12.258,2055.690
12.262,2084.253
12.266,2064.481
12.270,2078.392
12.273,2070.342
12.277,2046.899
12.281,2050.537
12.285,2008.805
12.289,1963.367
12.293,1939.183
12.297,1909.880
12.301,1863.735
12.305,1808.800
12.309,1805.128
12.313,1750.193
12.316,1700.377
12.320,1643.959
12.324,1619.034
12.328,1602.193
12.332,1542.845
12.336,1482.790
12.340,1486.461
12.344,1423.442
12.348,1382.417
12.352,1352.373
12.355,1334.791
12.359,1300.367
12.363,1299.626
12.367,1287.164
12.371,1241.760
12.375,1254.223
12.379,1190.463
12.383,1208.786
12.387,1150.179
12.391,1136.268
12.395,1139.198
12.398,1108.413
12.402,1073.990
12.406,1078.402
12.410,1062.268
12.414,1046.168
12.418,1017.572
12.422,1003.661
12.426,961.895
12.430,969.979
12.434,939.194
12.438,934.074
12.441,893.049
12.445,917.233
12.449,908.442
12.453,906.960
12.457,909.149
12.461,904.770
12.465,880.587
12.469,934.074
12.473,925.283
12.477,956.776
12.480,970.686
12.484,993.422
12.488,1008.074
12.492,1051.288
12.496,1073.990
12.500,1085.711
12.504,1102.552
12.508,1115.756
12.512,1122.357
12.516,1168.502
12.520,1161.159
12.523,1158.970
12.527,1216.836
12.531,1187.532
12.535,1237.348
12.539,1199.254
12.543,1245.432
12.547,1247.621
12.551,1245.432
12.555,1218.318
12.559,1237.348
12.563,1265.944
12.566,1246.880
12.570,1221.989
12.574,1227.109
12.578,1262.273
12.582,1237.348
12.586,1260.084
12.590,1219.766
12.594,1219.059
12.598,1248.362
12.602,1259.343
12.605,1217.577
12.609,1244.691
12.613,1242.502
12.617,1222.696
12.621,1263.014
12.625,1227.850
12.629,1262.273
12.633,1273.994
12.637,1242.502
12.641,1258.602
12.645,1301.108
12.648,1280.596
12.652,1276.925
12.656,1294.507
12.660,1317.209
12.664,1326.000
12.668,1331.860
12.672,1328.223
12.676,1348.735
12.680,1364.094
12.684,1356.785
12.688,1366.317
12.691,1398.551
12.695,1391.949
12.699,1380.228
12.703,1427.854
12.707,1430.785
12.711,1438.835
12.715,1419.063
12.719,1416.133
12.723,1437.353
12.727,1450.556
12.730,1442.506
12.734,1471.069
12.738,1457.865
12.742,1472.517
12.746,1488.651
12.750,1458.606
12.754,1504.751
12.758,1480.601
12.762,1507.681
12.766,1483.531
12.770,1517.213
12.773,1503.303
12.777,1501.821
12.781,1528.194
12.785,1501.113
12.789,1493.029
12.793,1528.935
12.797,1517.213
12.801,1506.974
12.805,1500.372
12.809,1512.835
12.813,1497.442
12.816,1530.417
12.820,1489.392
12.824,1524.556
12.828,1488.651
12.832,1506.233
12.836,1525.263
12.840,1482.790
12.844,1519.403
12.848,1480.601
12.852,1476.188
12.855,1512.835
12.859,1499.631
12.863,1469.587
12.867,1469.587
12.871,1498.890
12.875,1504.751
12.879,1485.720
12.883,1484.979
12.887,1523.815
12.891,1506.974
12.895,1528.935
12.898,1544.327
12.902,1539.208
12.906,1526.004
12.910,1513.542
12.914,1546.517
12.918,1510.612
12.922,1540.656
12.926,1525.263
12.930,1509.904
12.934,1509.163
12.938,1484.979
12.941,1457.158
12.945,1452.005
12.949,1471.069
12.953,1431.492
12.957,1417.581
12.961,1446.144
12.965,1409.531
12.969,1451.297
12.973,1427.113
12.977,1462.278
12.980,1430.785
12.984,1478.378
12.988,1490.099
12.992,1487.910
12.996,1515.024
13.000,1548.706
13.004,1578.010
13.008,1656.422
13.012,1666.661
13.016,1729.680
13.020,1748.711
13.023,1792.666
13.027,1836.621
13.031,1882.059
13.035,1942.855
13.039,1974.348
13.043,1991.930
13.047,2003.651
13.051,2047.606
13.055,2035.885
13.059,2032.955
13.063,2043.228
13.066,2045.417
13.070,2021.974
13.074,1973.640
13.078,1926.755
13.082,1886.437
13.086,1846.894
13.090,1799.268
13.094,1750.900
13.098,1667.402
13.102,1594.884
13.105,1558.979
13.109,1441.024
13.113,1364.094
13.117,1284.975
13.121,1221.248
13.125,1134.079
13.129,1071.059
13.133,1007.333
13.137,916.492
13.141,881.328
13.145,825.651
13.148,732.587
13.152,717.228
13.156,641.746
13.160,621.234
13.164,589.741
13.168,575.830
13.172,539.184
13.176,568.488
13.180,575.830
13.184,564.850
13.188,595.602
13.191,612.443
13.195,634.437
13.199,660.069
13.203,655.691
13.207,712.075
13.211,738.448
13.215,775.094
13.219,843.233
13.223,860.815
13.227,923.094
13.230,942.124
13.234,994.870
13.238,1046.168
13.242,1076.920
13.246,1111.343
13.250,1134.079
13.254,1164.830
13.258,1176.552
13.262,1211.716
13.266,1252.741
13.270,1283.526
13.273,1293.025
13.277,1292.317
13.281,1320.139
13.285,1349.442
13.289,1353.855
13.293,1364.094
13.297,1376.557
13.301,1399.999
13.305,1391.949
13.309,1396.328
13.313,1394.880
13.316,1436.646
13.320,1437.353
13.324,1412.462
13.328,1433.715
13.332,1425.631
13.336,1411.721
13.340,1448.367
13.344,1408.790
13.348,1434.423
13.352,1424.924
13.355,1432.974
13.359,1411.721
13.363,1414.651
13.367,1414.651
13.371,1397.069
13.375,1427.113
13.379,1408.790
13.383,1377.298
13.387,1416.840
13.391,1413.203
13.395,1371.437
13.398,1413.910
13.402,1372.885
13.406,1388.278
13.410,1391.208
13.414,1397.069
13.418,1424.183
13.422,1397.810
13.426,1444.696
13.430,1411.721
13.434,1427.854
13.438,1451.297
13.441,1447.626
13.445,1447.626
13.449,1442.506
13.453,1449.074
13.457,1493.770
13.461,1473.999
13.465,1458.606
13.469,1456.417
13.473,1458.606
13.477,1479.119
13.480,1487.169
13.484,1457.158
13.488,1452.746
13.492,1452.746
13.496,1449.815
13.500,1452.005
13.504,1490.840
13.508,1488.651
13.512,1482.790
13.516,1482.790
13.520,1471.069
13.523,1461.537
13.527,1442.506
13.531,1451.297
13.535,1448.367
13.539,1463.726
13.543,1446.885
13.547,1446.144
13.551,1467.397
13.555,1477.670
13.559,1475.447
13.563,1450.556
13.566,1465.208
13.570,1479.860
13.574,1487.910
13.578,1489.392
13.582,1465.949
13.586,1475.447
13.590,1471.810
13.594,1465.208
13.598,1487.910
13.602,1486.461
13.605,1528.194
13.609,1522.333
13.613,1509.163
13.617,1524.556
13.621,1554.567
13.625,1558.979
13.629,1563.358
13.633,1613.915
13.637,1607.313
13.641,1604.383
13.645,1645.408
13.648,1652.750
13.652,1639.547
13.656,1675.452
13.660,1654.940
13.664,1678.382
13.668,1686.432
13.672,1682.795
13.676,1662.990
13.680,1645.408
13.684,1679.864
13.688,1637.358
13.691,1652.009
13.695,1649.820
13.699,1631.497
13.703,1638.099
13.707,1619.034
13.711,1655.681
13.715,1635.909
13.719,1645.408
13.723,1621.965
13.727,1658.611
13.730,1630.756
13.734,1674.004
13.738,1659.352
13.742,1686.432
13.746,1723.820
13.750,1756.054
13.754,1769.964
13.758,1788.287
13.762,1814.661
13.766,1856.426
13.770,1897.451
13.773,1898.900
13.777,1954.576
13.781,1941.406
13.785,1977.278
13.789,1976.571
13.793,1971.417
13.797,1970.710
13.801,1955.317
13.805,1916.482
13.809,1921.601
13.813,1868.855
13.816,1835.914
13.820,1808.800
13.824,1750.900
13.828,1714.288
13.832,1630.049
13.836,1578.751
13.840,1519.403
13.844,1482.049
13.848,1443.214
13.852,1390.467
13.855,1293.025
13.859,1285.716
13.863,1212.457
13.867,1197.805
13.871,1147.248
13.875,1117.204
13.879,1064.458
13.883,1043.238
13.887,1016.124
13.891,977.288
13.895,999.990
13.898,947.244
13.902,977.288
13.906,957.517
13.910,945.795
13.914,958.965
13.918,942.865
13.922,969.238
13.926,953.845
13.930,978.770
13.934,974.358
13.938,988.269
13.941,993.422
13.945,981.700
13.949,979.477
13.953,1028.586
13.957,1002.920
13.961,1007.333
13.965,1024.174
13.969,1054.218
13.973,1018.313
13.977,1042.497
13.980,1062.268
13.984,1068.129
13.988,1032.965
13.992,1079.850
13.996,1086.452
14.000,1094.502
14.004,1099.622
14.008,1087.900
14.012,1103.293
14.016,1106.223
14.020,1099.622
14.023,1158.229
14.027,1160.452
14.031,1161.900
14.035,1156.039
14.039,1202.925
14.043,1191.204
14.047,1237.348
14.051,1249.070
14.055,1244.691
14.059,1268.875
14.063,1299.626
14.066,1315.019
14.070,1336.273
14.074,1348.735
14.078,1354.596
14.082,1355.303
14.086,1408.049
14.090,1410.272
14.094,1392.690
14.098,1445.437
14.102,1424.183
14.105,1421.253
14.109,1469.587
14.113,1433.715
14.117,1469.587
14.121,1427.854
14.125,1467.397
14.129,1438.835
14.133,1416.133
14.137,1433.715
14.141,1413.203
14.145,1399.999
14.148,1407.342
14.152,1394.139
14.156,1391.949
14.160,1375.108
14.164,1339.203
14.168,1367.024
14.172,1317.209
14.176,1328.930
14.180,1350.924
14.184,1334.083
14.188,1307.677
14.191,1339.203
14.195,1350.924
14.199,1331.153
14.203,1309.159
14.207,1323.069
14.211,1337.721
14.215,1356.785
14.219,1364.835
14.223,1339.203
14.227,1342.133
14.230,1338.462
14.234,1359.715
14.238,1382.417
14.242,1364.094
14.246,1377.298
14.250,1364.835
14.254,1383.158
14.258,1410.272
14.262,1380.228
14.266,1428.562
14.270,1403.671
14.273,1416.133
14.277,1446.885
14.281,1441.765
14.285,1435.905
14.289,1427.113
14.293,1441.765
14.297,1474.740
14.301,1475.447
14.305,1460.088
14.309,1443.955
14.313,1460.796
14.316,1494.511
14.320,1491.581
14.324,1492.322
14.328,1474.740
14.332,1466.656
14.336,1504.044
14.340,1479.860
14.344,1515.024
14.348,1489.392
14.352,1520.885
14.355,1487.169
14.359,1479.860
14.363,1481.308
14.367,1498.183
14.371,1515.024
14.375,1478.378
14.379,1473.999
14.383,1498.183
14.387,1497.442
14.391,1463.726
14.395,1480.601
14.398,1482.790
14.402,1453.487
14.406,1470.328
14.410,1489.392
14.414,1457.158
14.418,1442.506
14.422,1439.576
14.426,1475.447
14.430,1444.696
14.434,1476.188
14.438,1441.765
14.441,1482.049
14.445,1457.865
14.449,1453.487
14.453,1478.378
14.457,1460.088
14.461,1484.238
14.465,1479.860
14.469,1481.308
14.473,1507.681
14.477,1526.004
14.480,1512.094
14.484,1498.890
14.488,1513.542
14.492,1528.935
14.496,1523.815
14.500,1489.392
14.504,1526.004
14.508,1482.790
14.512,1506.974
14.516,1470.328
14.520,1484.238
14.523,1457.158
14.527,1465.949
14.531,1430.785
14.535,1438.835
14.539,1421.994
14.543,1369.248
14.547,1359.715
14.551,1360.456
14.555,1349.442
14.559,1372.178
14.563,1377.298
14.566,1356.785
14.570,1348.735
14.574,1334.083
14.578,1347.253
14.582,1365.576
14.586,1386.089
14.590,1385.348
14.594,1378.039
14.598,1381.676
14.602,1437.353
14.605,1421.253
14.609,1440.283
14.613,1466.656
14.617,1492.322
14.621,1486.461
14.625,1542.845
14.629,1525.263
14.633,1535.536
14.637,1545.776
14.641,1556.049
14.645,1586.801
14.648,1612.466
14.652,1612.466
14.656,1596.333
14.660,1569.219
14.664,1558.979
14.668,1558.238
14.672,1577.302
14.676,1517.954
14.680,1524.556
14.684,1498.183
14.688,1471.810
14.691,1427.854
14.695,1434.423
14.699,1383.899
14.703,1342.874
14.707,1315.760
14.711,1293.766
14.715,1268.134
14.719,1210.268
14.723,1158.970
14.727,1167.020
14.730,1117.945
14.734,1081.332
14.738,1040.307
14.742,1027.845
14.746,956.776
14.750,967.049
14.754,929.662
14.758,885.706
14.762,912.820
14.766,895.979
14.770,882.776
14.773,863.746
14.777,871.796
14.781,883.517
14.785,895.979
14.789,876.174
14.793,935.522
14.797,909.890
14.801,975.099
14.805,989.751
14.809,990.492
14.813,1008.781
14.816,1068.129
14.820,1092.313
14.824,1123.065
14.828,1123.065
14.832,1186.084
14.836,1192.686
14.840,1257.153
14.844,1256.412
14.848,1306.969
14.852,1316.468
14.855,1312.089
14.859,1354.596
14.863,1389.019
14.867,1401.481
14.871,1393.398
14.875,1412.462
14.879,1433.715
14.883,1453.487
14.887,1457.158
14.891,1446.885
14.895,1460.796
14.898,1460.088
14.902,1452.746
14.906,1448.367
14.910,1424.924
14.914,1405.119
14.918,1399.999
14.922,1394.880
14.926,1410.272
14.930,1427.113
14.934,1398.551
14.938,1391.949
14.941,1379.487
14.945,1362.646
14.949,1356.044
14.953,1347.994
14.957,1382.417
14.961,1364.835
14.965,1349.442
14.969,1334.791
14.973,1334.791
14.977,1362.646
14.980,1351.665
14.984,1317.950
14.988,1315.760
14.992,1332.601
14.996,1321.621
15.000,1302.557
15.004,1307.677
15.008,1309.159
15.012,1353.855
15.016,1358.974
15.020,1338.462
15.023,1346.512
15.027,1375.108
15.031,1380.228
15.035,1391.208
15.039,1388.278
15.043,1373.626
15.047,1372.885
15.051,1421.253
15.055,1402.930
15.059,1392.690
15.063,1400.740
15.066,1422.701
15.070,1411.721
15.074,1461.537
15.078,1431.492
15.082,1473.999
15.086,1442.506
15.090,1483.531
15.094,1454.228
15.098,1465.208
15.102,1478.378
15.105,1493.029
15.109,1465.949
15.113,1492.322
15.117,1485.720
15.121,1479.860
15.125,1506.233
15.129,1476.188
15.133,1492.322
15.137,1490.099
15.141,1482.790
15.145,1518.695
15.148,1487.169
15.152,1489.392
15.156,1489.392
15.160,1491.581
15.164,1507.681
15.168,1533.347
15.172,1547.258
15.176,1516.472
15.180,1520.144
15.184,1524.556
15.188,1540.656
15.191,1539.915
15.195,1552.377
15.199,1592.661
15.203,1580.233
15.207,1581.681
15.211,1573.631
15.215,1585.352
15.219,1582.422
15.223,1558.979
15.227,1560.427
15.230,1583.163
15.234,1591.213
15.238,1562.651
15.242,1542.845
15.246,1534.054
15.250,1556.790
15.254,1554.567
15.258,1550.188
15.262,1499.631
15.266,1516.472
15.270,1523.815
15.273,1486.461
15.277,1506.974
15.281,1527.486
15.285,1497.442
15.289,1522.333
15.293,1505.492
15.297,1557.497
15.301,1558.238
15.305,1550.188
15.309,1574.372
15.313,1602.934
15.316,1643.218
15.320,1696.706
15.324,1719.407
15.328,1784.616
15.332,1807.318
15.336,1836.621
15.340,1886.437
15.344,1941.406
15.348,1958.989
15.352,1983.880
15.355,2005.133
15.359,2015.373
15.363,2024.164
15.367,2013.183
15.371,2005.874
15.375,1988.999
15.379,1969.228
15.383,1937.735
15.387,1892.298
15.391,1847.635
15.395,1827.123
15.398,1736.248
15.402,1680.572
15.406,1618.327
15.410,1544.327
15.414,1487.169
15.418,1410.980
15.422,1347.253
15.426,1293.025
15.430,1252.741
15.434,1202.184
15.438,1126.736
15.441,1084.970
15.445,1062.268
15.449,1003.661
15.453,1002.213
15.457,968.497
15.461,943.606
15.465,937.004
15.469,901.099
15.473,928.213
15.477,952.397
15.480,919.422
15.484,931.144
15.488,969.979
15.492,978.029
15.496,989.751
15.500,1053.477
15.504,1051.288
15.508,1094.502
15.512,1121.616
15.516,1132.597
15.520,1142.129
15.523,1137.716
15.527,1196.323
15.531,1168.502
15.535,1221.989
15.539,1193.393
15.543,1235.159
15.547,1209.527
15.551,1245.432
15.555,1263.014
15.559,1221.248
15.563,1246.139
15.566,1266.652
15.570,1243.209
15.574,1227.850
15.578,1269.582
15.582,1236.641
15.586,1251.293
15.590,1234.418
15.594,1286.457
15.598,1254.930
15.602,1304.039
15.605,1273.253
15.609,1302.557
15.613,1323.810
15.617,1356.785
15.621,1364.094
15.625,1360.456
15.629,1358.233
15.633,1380.228
15.637,1423.442
15.641,1436.646
15.645,1444.696
15.648,1443.214
15.652,1440.283
15.656,1434.423
15.660,1427.854
15.664,1437.353
15.668,1472.517
15.672,1460.088
15.676,1443.955
15.680,1424.183
15.684,1422.701
15.688,1415.392
15.691,1411.721
15.695,1413.203
15.699,1403.671
15.703,1384.607
15.707,1375.108
15.711,1365.576
15.715,1355.303
15.719,1364.094
15.723,1335.532
15.727,1325.292
15.730,1338.462
15.734,1330.412
15.738,1330.412
15.742,1351.665
15.746,1342.133
15.750,1336.273
15.754,1347.253
15.758,1326.741
15.762,1313.537
15.766,1337.721
15.770,1329.671
15.773,1320.880
15.777,1340.651
15.781,1360.456
15.785,1342.133
15.789,1323.069
15.793,1328.223
15.797,1335.532
15.801,1364.094
15.805,1380.228
15.809,1386.830
15.813,1354.596
15.816,1375.816
15.820,1400.740
15.824,1376.557
15.828,1415.392
15.832,1426.372
15.836,1432.974
15.840,1436.646
15.844,1405.119
15.848,1438.835
15.852,1444.696
15.855,1427.113
15.859,1441.024
15.863,1432.233
15.867,1427.854
15.871,1446.885
15.875,1454.228
15.879,1436.646
15.883,1437.353
15.887,1448.367
15.891,1495.960
15.895,1493.029
15.898,1465.949
15.902,1516.472
15.906,1493.770
15.910,1487.169
15.914,1524.556
15.918,1522.333
15.922,1551.636
15.926,1537.726
15.930,1523.074
15.934,1545.068
15.938,1551.636
15.941,1564.840
15.945,1591.213
15.949,1569.960
15.953,1582.422
15.957,1616.104
15.961,1589.024
15.965,1617.586
15.969,1636.617
15.973,1632.238
15.977,1629.308
15.980,1641.029
15.984,1655.681
15.988,1666.661
15.992,1686.432
15.996,1697.447
16.000,1723.079
16.004,1750.900
16.008,1775.084
16.012,1769.223
16.016,1774.377
16.020,1782.427
16.023,1812.471
16.027,1823.452
16.031,1814.661
16.035,1805.128
16.039,1830.053
16.043,1820.521
16.047,1794.889
16.051,1768.516
16.055,1787.546
16.059,1761.914
16.063,1733.318
16.066,1695.965
16.070,1671.781
16.074,1662.990
16.078,1618.327
16.082,1563.358
16.086,1564.840
16.090,1489.392
16.094,1487.169
16.098,1453.487
16.102,1419.063
16.105,1379.487
16.109,1358.233
16.113,1342.874
16.117,1277.666
16.121,1281.303
16.125,1284.234
16.129,1235.159
16.133,1260.791
16.137,1265.944
16.141,1264.462
16.145,1273.253
16.148,1276.925
16.152,1299.626
16.156,1309.159
16.160,1307.677
16.164,1326.741
16.168,1329.671
16.172,1381.676
16.176,1388.278
16.180,1427.854
16.184,1416.133
16.188,1418.322
16.191,1450.556
16.195,1484.979
16.199,1449.815
16.203,1492.322
16.207,1449.815
16.211,1446.144
16.215,1465.949
16.219,1457.865
16.223,1418.322
16.227,1401.481
16.230,1391.949
16.234,1328.223
16.238,1307.677
16.242,1290.835
16.246,1208.045
16.250,1202.184
16.254,1151.661
16.258,1098.173
16.262,1052.736
16.266,1020.502
16.270,934.074
16.273,927.472
16.277,878.397
16.281,833.701
16.285,795.606
16.289,728.208
16.293,687.184
16.297,661.551
16.301,665.930
16.305,613.184
16.309,602.203
16.313,626.387
16.316,584.621
16.320,621.975
16.324,589.741
16.328,626.387
16.332,652.760
16.336,663.000
16.340,659.328
16.344,678.393
16.348,728.949
16.352,787.556
16.355,818.308
16.359,848.353
16.363,879.105
16.367,934.815
16.371,955.327
16.375,1006.592
16.379,1052.736
16.383,1076.920
16.387,1079.850
16.391,1140.647
16.395,1191.204
16.398,1219.059
16.402,1248.362
16.406,1277.666
16.410,1288.646
16.414,1311.348
16.418,1337.721
16.422,1369.248
16.426,1411.721
16.430,1415.392
16.434,1453.487
16.438,1470.328
16.441,1443.214
16.445,1467.397
16.449,1501.821
16.453,1489.392
16.457,1483.531
16.461,1502.562
16.465,1493.029
16.469,1501.821
16.473,1499.631
16.477,1491.581
16.480,1500.372
16.484,1503.303
16.488,1465.949
16.492,1474.740
16.496,1486.461
16.500,1485.720
16.504,1441.765
16.508,1444.696
16.512,1455.676
16.516,1436.646
16.520,1430.785
16.523,1447.626
16.527,1435.164
16.531,1410.272
16.535,1394.139
16.539,1427.854
16.543,1390.467
16.547,1429.303
16.551,1396.328
16.555,1408.049
16.559,1404.412
16.563,1426.372
16.566,1404.412
16.570,1432.974
16.574,1453.487
16.578,1425.631
16.582,1448.367
16.586,1448.367
16.590,1475.447
16.594,1442.506
16.598,1473.258
16.602,1498.183
16.605,1502.562
16.609,1504.044
16.613,1494.511
16.617,1498.890
16.621,1531.124
16.625,1544.327
16.629,1528.194
16.633,1538.467
16.637,1534.054
16.641,1572.890
16.645,1554.567
16.648,1556.049
16.652,1555.308
16.656,1594.884
16.660,1600.745
16.664,1596.333
16.668,1594.143
16.672,1564.099
16.676,1565.581
16.680,1575.820
16.684,1555.308
16.688,1549.447
16.691,1564.840
16.695,1563.358
16.699,1533.347
16.703,1523.074
16.707,1544.327
16.711,1554.567
16.715,1558.238
16.719,1542.845
16.723,1511.353
16.727,1545.776
16.730,1508.422
16.734,1552.377
16.738,1511.353
16.742,1547.258
16.746,1517.954
16.750,1509.163
16.754,1523.074
16.758,1501.821
16.762,1526.745
16.766,1506.974
16.770,1481.308
16.773,1464.467
16.777,1460.088
16.781,1453.487
16.785,1463.726
16.789,1443.214
16.793,1436.646
16.797,1433.715
16.801,1404.412
16.805,1376.557
16.809,1372.885
16.813,1378.746
16.816,1378.746
16.820,1426.372
16.824,1415.392
16.828,1462.278
16.832,1449.815
16.836,1504.751
16.840,1547.258
16.844,1571.442
16.848,1632.979
16.852,1704.015
16.855,1778.014
16.859,1836.621
16.863,1920.894
16.867,2001.462
16.871,2081.322
16.875,2158.960
16.879,2260.815
16.883,2321.611
16.887,2390.491
16.891,2449.805
16.895,2477.660
16.898,2520.134
16.902,2548.730
16.906,2548.730
16.910,2534.078
16.914,2528.925
16.918,2482.039
16.922,2463.009
16.926,2408.780
16.930,2345.795
16.934,2276.915
16.938,2177.283
16.941,2096.715
16.945,2028.576
16.949,1923.083
16.953,1812.471
16.957,1725.268
16.961,1641.029
16.965,1569.960
16.969,1481.308
16.973,1378.039
16.977,1304.746
16.980,1243.209
16.984,1180.223
16.988,1075.472
16.992,1056.408
16.996,1005.851
17.000,945.795
17.004,915.010
17.008,884.999
17.012,876.174
17.016,859.333
17.020,849.801
17.023,841.751
17.027,824.910
17.031,803.657
17.035,801.467
17.039,810.258
17.043,827.099
17.047,871.796
17.051,876.174
17.055,880.587
17.059,881.328
17.063,885.706
17.066,921.611
17.070,931.144
17.074,937.745
17.078,925.283
17.082,980.959
17.086,950.915
17.090,995.611
17.094,1025.656
17.098,1046.875
17.102,1063.009
17.105,1086.452
17.109,1103.293
17.113,1123.065
17.117,1112.825
17.121,1182.413
17.125,1175.811
17.129,1192.686
17.133,1254.223
17.137,1254.930
17.141,1287.905
17.145,1309.900
17.148,1335.532
17.152,1353.114
17.156,1369.248
17.160,1399.258
17.164,1379.487
17.168,1373.626
17.172,1369.955
17.176,1384.607
17.180,1389.019
17.184,1380.228
17.188,1367.765
17.191,1364.835
17.195,1360.456
17.199,1359.715
17.203,1359.715
17.207,1335.532
17.211,1330.412
17.215,1326.000
17.219,1275.443
17.223,1263.721
17.227,1268.875
17.230,1289.387
17.234,1247.621
17.238,1257.153
17.242,1244.691
17.246,1252.000
17.250,1249.811
17.254,1252.741
17.258,1274.735
17.262,1232.969
17.266,1260.084
17.270,1247.621
17.273,1260.791
17.277,1282.785
17.281,1252.000
17.285,1300.367
17.289,1271.064
17.293,1298.885
17.297,1317.209
17.301,1284.975
17.305,1334.083
17.309,1307.677
17.313,1317.950
17.316,1327.482
17.320,1344.323
17.324,1367.765
17.328,1373.626
17.332,1350.924
17.336,1381.676
17.340,1373.626
17.344,1383.899
17.348,1374.367
17.352,1359.715
17.355,1362.646
17.359,1411.721
17.363,1404.412
17.367,1380.969
17.371,1418.322
17.375,1396.328
17.379,1422.701
17.383,1410.272
17.387,1419.771
17.391,1442.506
17.395,1419.063
17.398,1415.392
17.402,1438.094
17.406,1421.994
17.410,1451.297
17.414,1411.721
17.418,1449.074
17.422,1425.631
17.426,1431.492
17.430,1445.437
17.434,1404.412
17.438,1443.214
17.441,1400.740
17.445,1427.854
17.449,1399.258
17.453,1424.924
17.457,1392.690
17.461,1431.492
17.465,1402.930
17.469,1386.830
17.473,1416.133
17.477,1394.139
17.480,1381.676
17.484,1419.771
17.488,1389.019
17.492,1421.253
17.496,1378.039
17.500,1421.253
17.504,1391.949
17.508,1386.089
17.512,1402.189
17.516,1380.969
17.520,1416.133
17.523,1383.158
17.527,1413.203
17.531,1417.581
17.535,1410.980
17.539,1408.790
17.543,1414.651
17.547,1423.442
17.551,1422.701
17.555,1430.044
17.559,1484.238
17.563,1468.879
17.566,1482.790
17.570,1507.681
17.574,1534.054
17.578,1534.795
17.582,1553.859
17.586,1560.427
17.590,1581.681
17.594,1586.093
17.598,1597.815
17.602,1616.845
17.605,1632.979
17.609,1624.188
17.613,1619.775
17.617,1607.313
17.621,1605.865
17.625,1598.522
17.629,1593.402
17.633,1597.074
17.637,1570.701
17.641,1557.497
17.645,1562.651
17.648,1547.258
17.652,1533.347
17.656,1526.745
17.660,1521.626
17.664,1523.074
17.668,1518.695
17.672,1545.068
17.676,1550.929
17.680,1572.149
17.684,1564.099
17.688,1576.561
17.691,1578.751
17.695,1628.567
17.699,1654.940
17.703,1656.422
17.707,1717.959
17.711,1718.666
17.715,1769.964
17.719,1810.989
17.723,1841.775
17.727,1859.357
17.730,1880.577
17.734,1897.451
17.738,1904.019
17.742,1883.507
17.746,1868.148
17.750,1857.875
17.754,1840.293
17.758,1825.641
17.762,1806.610
17.766,1767.034
17.770,1699.636
17.773,1660.059
17.777,1600.745
17.781,1528.935
17.785,1493.029
17.789,1402.189
17.793,1368.506
17.797,1298.885
17.801,1191.945
17.805,1115.756
17.809,1077.661
17.813,997.060
17.816,902.581
17.820,843.940
17.824,810.258
17.828,717.228
17.832,695.975
17.836,634.437
17.840,621.234
17.844,577.279
17.848,525.273
17.852,537.736
17.855,529.686
17.859,515.034
17.863,556.766
17.867,580.209
17.871,600.721
17.875,619.045
17.879,619.786
17.883,671.791
17.887,735.518
17.891,759.701
17.895,819.790
17.898,846.163
17.902,864.453
17.906,906.219
17.910,967.049
17.914,1035.154
17.918,1072.541
17.922,1104.775
17.926,1131.856
17.930,1186.084
17.934,1211.716
17.938,1228.557
17.941,1214.646
17.945,1235.159
17.949,1250.552
17.953,1268.875
17.957,1317.950
17.961,1304.746
17.965,1306.969
17.969,1339.203
17.973,1329.671
17.977,1319.398
17.980,1331.153
17.984,1323.069
17.988,1363.387
17.992,1330.412
17.996,1363.387
18.000,1341.392
18.004,1353.114
18.008,1380.228
18.012,1350.924
18.016,1387.537
18.020,1353.114
18.023,1389.760
18.027,1358.974
18.031,1376.557
18.035,1406.601
18.039,1372.178
18.043,1396.328
18.047,1428.562
18.051,1419.771
18.055,1395.621
18.059,1427.113
18.063,1445.437
18.066,1446.144
18.070,1414.651
18.074,1442.506
18.078,1454.228
18.082,1462.278
18.086,1464.467
18.090,1463.019
18.094,1470.328
18.098,1473.999
18.102,1473.258
18.105,1471.069
18.109,1479.119
18.113,1476.188
18.117,1460.796
18.121,1450.556
18.125,1443.214
18.129,1445.437
18.133,1460.088
18.137,1476.188
18.141,1495.960
18.145,1490.840
18.148,1489.392
18.152,1500.372
18.156,1493.029
18.160,1514.283
18.164,1505.492
18.168,1520.885
18.172,1495.960
18.176,1520.144
18.180,1498.890
18.184,1479.119
18.188,1495.960
18.191,1472.517
18.195,1471.810
18.199,1513.542
18.203,1498.890
18.207,1475.447
18.211,1504.044
18.215,1507.681
18.219,1509.163
18.223,1501.821
18.227,1474.740
18.230,1481.308
18.234,1486.461
18.238,1502.562
18.242,1484.238
18.246,1504.044
18.250,1509.904
18.254,1491.581
18.258,1492.322
18.262,1503.303
18.266,1510.612
18.270,1468.138
18.273,1482.049
18.277,1506.233
18.281,1492.322
18.285,1480.601
18.289,1495.252
18.293,1511.353
18.297,1469.587
18.301,1469.587
18.305,1501.113
18.309,1513.542
18.313,1491.581
18.316,1468.879
18.320,1483.531
18.324,1487.169
18.328,1501.821
18.332,1455.676
18.336,1490.840
18.340,1449.074
18.344,1449.074
18.348,1482.049
18.352,1440.283
18.355,1454.935
18.359,1451.297
18.363,1417.581
18.367,1409.531
18.371,1418.322
18.375,1399.999
18.379,1402.930
18.383,1431.492
18.387,1438.835
18.391,1417.581
18.395,1405.119
18.398,1460.088
18.402,1438.835
18.406,1477.670
18.410,1515.024
18.414,1523.815
18.418,1568.511
18.422,1647.631
18.426,1681.313
18.430,1726.750
18.434,1769.964
18.438,1830.053
18.441,1889.368
18.445,1947.267
18.449,2008.064
18.453,2035.885
18.457,2092.303
18.461,2107.695
18.465,2134.069
18.469,2160.442
18.473,2167.043
18.477,2163.372
18.480,2161.183
18.484,2147.238
18.488,2106.954
18.492,2090.113
18.496,2056.397
18.500,2004.392
18.504,1933.323
18.508,1859.357
18.512,1810.248
18.516,1720.148
18.520,1641.770
18.523,1575.079
18.527,1515.765
18.531,1417.581
18.535,1347.994
18.539,1296.696
18.543,1265.203
18.547,1188.273
18.551,1147.248
18.555,1115.015
18.559,1038.825
18.563,1002.920
18.566,980.218
18.570,980.959
18.574,931.885
18.578,942.124
18.582,945.054
18.586,912.820
18.590,958.258
18.594,930.403
18.598,953.845
18.602,962.636
18.605,942.124
18.609,978.770
18.613,967.756
18.617,950.915
18.621,987.561
18.625,1002.920
18.629,999.283
18.633,1016.865
18.637,1027.845
18.641,1019.054
18.645,1011.004
18.648,1011.711
18.652,1062.268
18.656,1066.681
18.660,1091.572
18.664,1108.413
18.668,1119.427
18.672,1113.566
18.676,1117.204
18.680,1177.293
18.684,1156.780
18.688,1205.114
18.691,1213.905
18.695,1201.477
18.699,1241.019
18.703,1276.184
18.707,1279.114
18.711,1265.203
18.715,1303.298
18.719,1327.482
18.723,1340.651
18.727,1350.183
18.730,1346.512
18.734,1372.885
18.738,1374.367
18.742,1375.108
18.746,1383.899
18.750,1377.298
18.754,1378.039
18.758,1355.303
18.762,1388.278
18.766,1399.258
18.770,1373.626
18.773,1369.955
18.777,1363.387
18.781,1374.367
18.785,1372.885
18.789,1388.278
18.793,1392.690
18.797,1386.830
18.801,1382.417
18.805,1376.557
18.809,1372.178
18.813,1366.317
18.816,1317.950
18.820,1337.014
18.824,1355.303
18.828,1343.582
18.832,1308.418
18.836,1305.487
18.840,1304.746
18.844,1309.159
18.848,1307.677
18.852,1305.487
18.855,1325.292
18.859,1350.183
18.863,1347.994
18.867,1329.671
18.871,1359.715
18.875,1350.183
18.879,1347.994
18.883,1343.582
18.887,1347.994
18.891,1350.924
18.895,1393.398
18.898,1398.551
18.902,1395.621
18.906,1404.412
18.910,1413.203
18.914,1419.063
18.918,1398.551
18.922,1391.949
18.926,1432.233
18.930,1429.303
18.934,1413.910
18.938,1419.771
18.941,1428.562
18.945,1440.283
18.949,1447.626
18.953,1461.537
18.957,1478.378
18.961,1504.751
18.965,1493.770
18.969,1473.258
18.973,1512.094
18.977,1484.238
18.980,1531.124
18.984,1499.631
18.988,1532.606
18.992,1533.347
18.996,1508.422
19.000,1495.252
19.004,1520.885
19.008,1504.751
19.012,1489.392
19.016,1515.765
19.020,1482.049
19.023,1505.492
19.027,1472.517
19.031,1482.790
19.035,1469.587
19.039,1454.228
19.043,1432.233
19.047,1445.437
19.051,1413.203
19.055,1434.423
19.059,1398.551
19.063,1423.442
19.066,1403.671
19.070,1380.969
19.074,1385.348
19.078,1388.278
19.082,1413.203
19.086,1410.272
19.090,1400.740
19.094,1393.398
19.098,1389.760
19.102,1387.537
19.105,1393.398
19.109,1438.835
19.113,1446.885
19.117,1430.044
19.121,1422.701
19.125,1466.656
19.129,1450.556
19.133,1468.879
19.137,1447.626
19.141,1488.651
19.145,1465.949
19.148,1500.372
19.152,1461.537
19.156,1509.163
19.160,1497.442
19.164,1484.979
19.168,1500.372
19.172,1482.790
19.176,1523.074
19.180,1491.581
19.184,1524.556
19.188,1483.531
19.191,1481.308
19.195,1497.442
19.199,1486.461
19.203,1504.044
19.207,1497.442
19.211,1455.676
19.215,1445.437
19.219,1473.999
19.223,1451.297
19.227,1421.253
19.230,1421.994
19.234,1438.835
19.238,1398.551
19.242,1425.631
19.246,1424.183
19.250,1430.044
19.254,1423.442
19.258,1423.442
19.262,1424.924
19.266,1426.372
19.270,1430.785
19.273,1443.214
19.277,1443.955
19.281,1465.949
19.285,1465.208
19.289,1467.397
19.293,1474.740
19.297,1504.044
19.301,1497.442
19.305,1494.511
19.309,1523.815
19.313,1531.124
19.316,1523.074
19.320,1543.586
19.324,1527.486
19.328,1499.631
19.332,1528.194
19.336,1493.770
19.340,1479.860
19.344,1493.029
19.348,1487.169
19.352,1448.367
19.355,1442.506
19.359,1432.233
19.363,1412.462
19.367,1382.417
19.371,1379.487
19.375,1350.924
19.379,1323.069
19.383,1306.228
19.387,1246.139
19.391,1255.671
19.395,1186.825
19.398,1191.945
19.402,1136.268
19.406,1114.273
19.410,1121.616
19.414,1061.527
19.418,1072.541
19.422,1038.825
19.426,999.283
19.430,978.770
19.434,986.079
19.438,936.263
19.441,945.795
19.445,907.701
19.449,939.194
19.453,912.079
19.457,911.372
19.461,893.049
19.465,892.308
19.469,928.954
19.473,927.472
19.477,899.651
19.480,950.915
19.484,960.447
19.488,939.194
19.492,990.492
19.496,975.840
19.500,1028.586
19.504,1062.268
19.508,1090.831
19.512,1117.204
19.516,1145.059
19.520,1174.362
19.523,1186.825
19.527,1205.114
19.531,1241.760
19.535,1278.373
19.539,1282.785
19.543,1323.810
19.547,1367.024
19.551,1394.880
19.555,1417.581
19.559,1434.423
19.563,1457.158
19.566,1468.879
19.570,1500.372
19.574,1495.960
19.578,1506.233
19.582,1511.353
19.586,1514.283
19.590,1510.612
19.594,1512.094
19.598,1498.183
19.602,1490.099
19.605,1511.353
19.609,1501.821
19.613,1497.442
19.617,1487.169
19.621,1468.879
19.625,1444.696
19.629,1447.626
19.633,1424.924
19.637,1419.771
19.641,1407.342
19.645,1401.481
19.648,1345.805
19.652,1361.164
19.656,1368.506
19.660,1319.398
19.664,1323.810
19.668,1353.114
19.672,1336.273
19.676,1304.746
19.680,1330.412
19.684,1340.651
19.688,1344.323
19.691,1334.083
19.695,1313.537
19.699,1337.014
19.703,1364.094
19.707,1328.223
19.711,1353.114
19.715,1378.039
19.719,1385.348
19.723,1365.576
19.727,1399.999
19.730,1401.481
19.734,1410.272
19.738,1424.924
19.742,1424.183
19.746,1443.214
19.750,1445.437
19.754,1471.069
19.758,1483.531
19.762,1490.840
19.766,1478.378
19.770,1480.601
19.773,1529.676
19.777,1510.612
19.781,1513.542
19.785,1514.283
19.789,1513.542
19.793,1548.706
19.797,1547.999
19.801,1516.472
19.805,1538.467
19.809,1548.706
19.813,1520.144
19.816,1513.542
19.820,1499.631
19.824,1536.277
19.828,1515.765
19.832,1510.612
19.836,1489.392
19.840,1487.910
19.844,1521.626
19.848,1494.511
19.852,1503.303
19.855,1516.472
19.859,1503.303
19.863,1494.511
19.867,1506.233
19.871,1501.113
19.875,1508.422
19.879,1486.461
19.883,1520.144
19.887,1485.720
19.891,1469.587
19.895,1494.511
19.898,1501.113
19.902,1468.138
19.906,1440.283
19.910,1435.905
19.914,1458.606
19.918,1436.646
19.922,1409.531
19.926,1392.690
19.930,1380.228
19.934,1315.019
19.938,1323.069
19.941,1287.905
19.945,1287.164
19.949,1244.691
19.953,1265.944
19.957,1224.178
19.961,1249.070
19.965,1223.437
19.969,1246.880
19.973,1268.875
19.977,1269.582
19.980,1290.835
19.984,1342.874
19.988,1375.108
19.992,1392.690
19.996,1419.771
20.000,1478.378
20.004,1536.277
20.008,1604.383
20.012,1630.049
20.016,1701.825
20.020,1740.661
20.023,1823.452
20.027,1838.844
20.031,1916.482
20.035,1936.253
20.039,1953.128
20.043,1972.158
20.047,1996.342
20.051,2024.905
20.055,2012.442
20.059,1988.292
20.063,1974.348
20.066,1934.805
20.070,1919.412
20.074,1881.318
20.078,1857.134
20.082,1780.945
20.086,1745.039
20.090,1712.098
20.094,1652.750
20.098,1587.542
20.102,1519.403
20.105,1497.442
20.109,1416.133
20.113,1397.069
20.117,1328.930
20.121,1273.253
20.125,1252.000
20.129,1228.557
20.133,1176.552
20.137,1149.438
20.141,1146.507
20.145,1109.895
20.148,1102.552
20.152,1079.109
20.156,1071.059
20.160,1041.756
20.164,1071.059
20.168,1055.667
20.172,1046.168
20.176,1035.895
20.180,1066.681
20.184,1047.616
20.188,1050.547
20.191,1079.850
20.195,1090.123
20.199,1095.984
20.203,1078.402
20.207,1108.413
20.211,1117.945
20.215,1123.065
20.219,1136.268
20.223,1146.507
20.227,1145.059
20.230,1169.243
20.234,1189.014
20.238,1184.602
20.242,1235.900
20.246,1227.109
20.250,1271.805
20.254,1271.064
20.258,1275.443
20.262,1288.646
20.266,1305.487
20.270,1346.512
20.273,1348.735
20.277,1366.317
20.281,1384.607
20.285,1421.253
20.289,1386.830
20.293,1439.576
20.297,1408.049
20.301,1416.133
20.305,1456.417
20.309,1438.094
20.313,1418.322
20.316,1425.631
20.320,1443.214
20.324,1457.865
20.328,1413.910
20.332,1448.367
20.336,1430.044
20.340,1417.581
20.344,1396.328
20.348,1427.113
20.352,1421.253
20.355,1394.880
20.359,1419.771
20.363,1390.467
20.367,1380.228
20.371,1408.790
20.375,1389.019
20.379,1378.746
20.383,1372.178
20.387,1410.980
20.391,1389.760
20.395,1378.039
20.398,1374.367
20.402,1374.367
20.406,1384.607
20.410,1391.949
20.414,1403.671
20.418,1405.119
20.422,1418.322
20.426,1390.467
20.430,1388.278
20.434,1423.442
20.438,1425.631
20.441,1404.412
20.445,1386.089
20.449,1424.183
20.453,1397.810
20.457,1408.049
20.461,1404.412
20.465,1399.999
20.469,1415.392
20.473,1444.696
20.477,1438.094
20.480,1449.815
20.484,1447.626
20.488,1467.397
20.492,1449.074
20.496,1448.367
20.500,1495.960
20.504,1474.740
20.508,1513.542
20.512,1483.531
20.516,1531.124
20.520,1499.631
20.523,1547.258
20.527,1505.492
20.531,1514.283
20.535,1545.776
20.539,1515.765
20.543,1552.377
20.547,1517.954
20.551,1517.213
20.555,1528.935
20.559,1506.233
20.563,1496.701
20.566,1534.795
20.570,1486.461
20.574,1512.835
20.578,1501.113
20.582,1492.322
20.586,1477.670
20.590,1461.537
20.594,1498.183
20.598,1465.208
20.602,1450.556
20.605,1447.626
20.609,1457.865
20.613,1490.099
20.617,1495.960
20.621,1485.720
20.625,1479.119
20.629,1496.701
20.633,1517.213
20.637,1514.283
20.641,1507.681
20.645,1560.427
20.648,1542.138
20.652,1580.233
20.656,1557.497
20.660,1579.492
20.664,1618.327
20.668,1611.725
20.672,1606.606
20.676,1619.034
20.680,1632.979
20.684,1630.049
20.688,1637.358
20.691,1647.631
20.695,1636.617
20.699,1636.617
20.703,1648.338
20.707,1634.427
20.711,1635.909
20.715,1627.826
20.719,1608.795
20.723,1600.745
20.727,1589.731
20.730,1563.358
20.734,1544.327
20.738,1545.776
20.742,1500.372
20.746,1513.542
20.750,1460.088
20.754,1438.835
20.758,1441.024
20.762,1410.980
20.766,1397.810
20.770,1380.969
20.773,1383.899
20.777,1368.506
20.781,1321.621
20.785,1317.209
20.789,1343.582
20.793,1353.855
20.797,1339.944
20.801,1317.950
20.805,1319.398
20.809,1326.741
20.813,1349.442
20.816,1384.607
20.820,1357.526
20.824,1367.024
20.828,1389.760
20.832,1401.481
20.836,1407.342
20.840,1452.746
20.844,1450.556
20.848,1435.164
20.852,1454.935
20.855,1482.049
20.859,1474.740
20.863,1484.979
20.867,1470.328
20.871,1460.796
20.875,1443.955
20.879,1421.253
20.883,1453.487
20.887,1434.423
20.891,1415.392
20.895,1386.830
20.898,1337.721
20.902,1308.418
20.906,1271.064
20.910,1273.253
20.914,1217.577
20.918,1199.995
20.922,1157.521
20.926,1124.547
20.930,1096.691
20.934,1043.238
20.938,989.751
20.941,986.820
20.945,949.467
20.949,905.511
20.953,874.726
20.957,854.954
20.961,825.651
20.965,760.442
20.969,778.024
20.973,712.816
20.977,740.671
20.980,716.487
20.984,696.716
20.988,692.303
20.992,674.721
20.996,709.144
21.000,713.557
21.004,708.437
21.008,734.069
21.012,788.264
21.016,820.498
21.020,859.333
21.023,890.860
21.027,895.979
21.031,960.447
21.035,978.770
21.039,996.352
21.043,1060.079
21.047,1090.123
21.051,1140.647
21.055,1175.811
21.059,1195.616
21.063,1247.621
21.066,1278.373
21.070,1304.039
21.074,1306.969
21.078,1338.462
21.082,1405.119
21.086,1416.840
21.090,1440.283
21.094,1435.905
21.098,1468.879
21.102,1499.631
21.105,1536.277
21.109,1547.999
21.113,1545.776
21.117,1542.138
21.121,1533.347
21.125,1542.138
21.129,1580.233
21.133,1586.093
21.137,1572.890
21.141,1579.492
21.145,1536.985
21.148,1539.208
21.152,1532.606
21.156,1534.054
21.160,1532.606
21.164,1520.885
21.168,1534.795
21.172,1519.403
21.176,1504.044
21.180,1504.751
21.184,1498.183
21.188,1510.612
21.191,1465.949
21.195,1495.960
21.199,1461.537
21.203,1482.790
21.207,1462.278
21.211,1441.024
21.215,1429.303
21.219,1465.949
21.223,1441.765
21.227,1416.133
21.230,1451.297
21.234,1403.671
21.238,1441.765
21.242,1443.214
21.246,1408.049
21.250,1432.974
21.254,1427.113
21.258,1408.049
21.262,1399.999
21.266,1444.696
21.270,1438.835
21.273,1417.581
21.277,1444.696
21.281,1463.726
21.285,1467.397
21.289,1453.487
21.293,1456.417
21.297,1484.238
21.301,1470.328
21.305,1462.278
21.309,1491.581
21.313,1468.138
21.316,1461.537
21.320,1503.303
21.324,1462.278
21.328,1503.303
21.332,1474.740
21.336,1468.138
21.340,1493.029
21.344,1461.537
21.348,1495.252
21.352,1472.517
21.355,1485.720
21.359,1479.860
21.363,1476.188
21.367,1507.681
21.371,1504.751
21.375,1482.049
21.379,1490.099
21.383,1509.904
21.387,1544.327
21.391,1547.999
21.395,1525.263
21.398,1542.845
21.402,1562.651
21.406,1562.651
21.410,1575.079
21.414,1574.372
21.418,1582.422
21.422,1553.118
21.426,1567.770
21.430,1583.870
21.434,1589.024
21.438,1588.283
21.441,1592.661
21.445,1599.263
21.449,1602.934
21.453,1621.257
21.457,1632.979
21.461,1636.617
21.465,1643.218
21.469,1660.800
21.473,1660.800
21.477,1641.770
21.480,1643.959
21.484,1639.547
21.488,1625.636
21.492,1646.149
21.496,1661.541
21.500,1667.402
21.504,1675.452
21.508,1725.268
21.512,1742.850
21.516,1759.691
21.520,1817.591
21.523,1813.919
21.527,1877.646
21.531,1887.178
21.535,1900.382
21.539,1917.964
21.543,1944.337
21.547,1958.248
21.551,1939.924
21.555,1936.253
21.559,1925.273
21.563,1918.671
21.566,1893.780
21.570,1861.546
21.574,1807.318
21.578,1748.711
21.582,1697.447
21.586,1660.059
21.590,1581.681
21.594,1532.606
21.598,1444.696
21.602,1402.189
21.605,1289.387
21.609,1248.362
21.613,1184.602
21.617,1106.223
21.621,1006.592
21.625,991.940
21.629,934.815
21.633,876.174
21.637,808.776
21.641,789.005
21.645,764.114
21.648,740.671
21.652,695.234
21.656,693.044
21.660,707.696
21.664,689.373
21.668,720.866
21.672,709.144
21.676,753.841
21.680,793.417
21.684,809.517
21.688,808.776
21.691,875.467
21.695,915.751
21.699,909.890
21.703,960.447
21.707,1026.363
21.711,1060.820
21.715,1097.432
21.719,1134.079
21.723,1123.806
21.727,1158.970
21.730,1201.477
21.734,1216.836
21.738,1244.691
21.742,1273.253
21.746,1333.342
21.750,1330.412
21.754,1331.860
21.758,1360.456
21.762,1405.119
21.766,1391.949
21.770,1413.910
21.773,1443.955
21.777,1457.158
21.781,1430.785
21.785,1427.113
21.789,1467.397
21.793,1441.024
21.797,1473.258
21.801,1442.506
21.805,1452.746
21.809,1474.740
21.813,1485.720
21.816,1449.074
21.820,1441.024
21.824,1465.208
21.828,1433.715
21.832,1460.796
21.836,1427.854
21.840,1438.835
21.844,1443.214
21.848,1463.726
21.852,1445.437
21.855,1446.144
21.859,1424.183
21.863,1422.701
21.867,1457.865
21.871,1452.005
21.875,1447.626
21.879,1438.835
21.883,1424.183
21.887,1432.974
21.891,1421.253
21.895,1396.328
21.898,1409.531
21.902,1414.651
21.906,1424.924
21.910,1394.139
21.914,1413.910
21.918,1405.119
21.922,1441.765
21.926,1405.860
21.930,1431.492
21.934,1413.203
21.938,1452.746
21.941,1437.353
21.945,1464.467
21.949,1461.537
21.953,1443.214
21.957,1489.392
21.961,1458.606
21.965,1482.790
21.969,1481.308
21.973,1511.353
21.977,1476.188
21.980,1517.954
21.984,1479.860
21.988,1506.233
21.992,1501.821
21.996,1478.378
22.000,1500.372
22.004,1522.333
22.008,1520.144
22.012,1490.840
22.016,1493.029
22.020,1487.910
22.023,1487.910
22.027,1514.283
22.031,1476.929
22.035,1487.910
22.039,1462.278
22.043,1495.960
22.047,1464.467
22.051,1501.821
22.055,1459.347
22.059,1504.044
22.063,1466.656
22.066,1493.029
22.070,1484.238
22.074,1497.442
22.078,1520.144
22.082,1520.144
22.086,1507.681
22.090,1515.024
22.094,1498.183
22.098,1488.651
22.102,1491.581
22.105,1534.795
22.109,1523.815
22.113,1501.113
22.117,1546.517
22.121,1532.606
22.125,1515.765
22.129,1563.358
22.133,1528.935
22.137,1557.497
22.141,1538.467
22.145,1576.561
22.148,1549.447
22.152,1571.442
22.156,1592.661
22.160,1559.720
22.164,1597.074
22.168,1590.472
22.172,1626.377
22.176,1597.815
22.180,1645.408
22.184,1657.870
22.188,1665.920
22.191,1630.756
22.195,1637.358
22.199,1675.452
22.203,1645.408
22.207,1650.561
22.211,1633.686
22.215,1646.890
22.219,1621.257
22.223,1658.611
22.227,1621.965
22.230,1610.984
22.234,1627.118
22.238,1591.213
22.242,1558.979
22.246,1586.801
22.250,1551.636
22.254,1530.417
22.258,1502.562
22.262,1517.213
22.266,1490.840
22.270,1460.088
22.273,1452.746
22.277,1454.935
22.281,1446.885
22.285,1443.955
22.289,1443.214
22.293,1432.974
22.297,1435.164
22.301,1424.183
22.305,1421.253
22.309,1429.303
22.313,1432.233
22.316,1480.601
22.320,1482.049
22.324,1459.347
22.328,1491.581
22.332,1472.517
22.336,1494.511
22.340,1533.347
22.344,1511.353
22.348,1507.681
22.352,1502.562
22.355,1492.322
22.359,1527.486
22.363,1515.765
22.367,1484.238
22.371,1465.949
22.375,1466.656
22.379,1408.049
22.383,1397.069
22.387,1369.955
22.391,1312.830
22.395,1317.209
22.398,1275.443
22.402,1216.128
22.406,1178.741
22.410,1152.368
22.414,1113.566
22.418,1082.781
22.422,1020.502
22.426,961.188
22.430,964.118
22.434,927.472
22.438,895.979
22.441,843.233
22.445,816.119
22.449,810.258
22.453,769.974
22.457,742.860
22.461,750.910
22.465,742.119
22.469,712.075
22.473,733.328
22.477,695.234
22.480,723.796
22.484,720.158
22.488,745.791
22.492,748.721
22.496,741.378
22.500,764.821
22.504,789.005
22.508,832.219
22.512,854.213
22.516,874.726
22.520,897.428
22.523,917.233
22.527,910.631
22.531,967.049
22.535,997.801
22.539,1021.243
22.543,1036.636
22.547,1094.502
22.551,1125.995
22.555,1149.438
22.559,1169.243
22.563,1197.805
22.566,1232.969
22.570,1252.000
22.574,1285.716
22.578,1324.551
22.582,1334.083
22.586,1356.044
22.590,1383.899
22.594,1399.999
22.598,1419.771
22.602,1431.492
22.605,1417.581
22.609,1418.322
22.613,1418.322
22.617,1426.372
22.621,1459.347
22.625,1468.879
22.629,1448.367
22.633,1442.506
22.637,1475.447
22.641,1454.935
22.645,1447.626
22.648,1478.378
22.652,1458.606
22.656,1478.378
22.660,1468.879
22.664,1429.303
22.668,1414.651
22.672,1401.481
22.676,1426.372
22.680,1417.581
22.684,1408.790
22.688,1399.258
22.691,1388.278
22.695,1377.298
22.699,1358.974
22.703,1353.855
22.707,1365.576
22.711,1363.387
22.715,1336.273
22.719,1347.994
22.723,1322.328
22.727,1345.805
22.730,1343.582
22.734,1337.721
22.738,1325.292
22.742,1363.387
22.746,1343.582
22.750,1325.292
22.754,1354.596
22.758,1362.646
22.762,1375.816
22.766,1383.158
22.770,1370.696
22.773,1345.064
22.777,1359.715
22.781,1361.905
22.785,1372.885
22.789,1402.930
22.793,1406.601
22.797,1408.790
22.801,1410.272
22.805,1392.690
22.809,1405.119
22.813,1413.910
22.816,1424.924
22.820,1426.372
22.824,1429.303
22.828,1414.651
22.832,1420.512
22.836,1414.651
22.840,1421.253
22.844,1412.462
22.848,1416.133
22.852,1438.094
22.855,1468.879
22.859,1461.537
22.863,1444.696
22.867,1443.214
22.871,1456.417
22.875,1496.701
22.879,1498.890
22.883,1487.169
22.887,1476.188
22.891,1473.258
22.895,1476.188
22.898,1490.840
22.902,1520.144
22.906,1492.322
22.910,1487.910
22.914,1490.840
22.918,1513.542
22.922,1507.681
22.926,1490.099
22.930,1528.935
22.934,1493.029
22.938,1506.233
22.941,1535.536
22.945,1516.472
22.949,1545.776
22.953,1503.303
22.957,1518.695
22.961,1541.397
22.965,1535.536
22.969,1514.283
22.973,1520.885
22.977,1538.467
22.980,1506.233
22.984,1481.308
22.988,1503.303
22.992,1504.044
22.996,1479.860
23.000,1469.587
23.004,1466.656
23.008,1450.556
23.012,1438.094
23.016,1410.272
23.020,1419.771
23.023,1395.621
23.027,1375.816
23.031,1355.303
23.035,1355.303
23.039,1331.860
23.043,1339.203
23.047,1341.392
23.051,1314.278
23.055,1324.551
23.059,1357.526
23.063,1391.208
23.066,1408.049
23.070,1441.024
23.074,1465.949
23.078,1545.776
23.082,1568.511
23.086,1634.427
23.090,1711.357
23.094,1799.268
23.098,1832.984
23.102,1900.382
23.105,1965.557
23.109,2036.626
23.113,2094.492
23.117,2115.004
23.121,2155.322
23.125,2191.193
23.129,2187.556
23.133,2178.765
23.137,2188.263
23.141,2173.611
23.145,2148.720
23.148,2092.303
23.152,2034.437
23.156,1988.999
23.160,1917.223
23.164,1863.735
23.168,1781.686
23.172,1704.756
23.176,1665.920
23.180,1560.427
23.184,1477.670
23.188,1441.024
23.191,1334.083
23.195,1271.064
23.199,1216.128
23.203,1203.666
23.207,1142.870
23.211,1095.984
23.215,1092.313
23.219,1051.288
23.223,1010.263
23.227,1035.154
23.230,1012.452
23.234,1019.795
23.238,997.801
23.242,981.700
23.246,1025.656
23.250,1019.054
23.254,1013.934
23.258,1030.034
23.262,1032.965
23.266,1082.781
23.270,1060.079
23.273,1098.173
23.277,1132.597
23.281,1152.368
23.285,1166.312
23.289,1156.780
23.293,1175.811
23.297,1212.457
23.301,1255.671
23.305,1263.721
23.309,1263.721
23.313,1265.944
23.316,1282.785
23.320,1325.292
23.324,1315.760
23.328,1358.233
23.332,1346.512
23.336,1378.746
23.340,1357.526
23.344,1386.089
23.348,1377.298
23.352,1374.367
23.355,1380.969
23.359,1405.119
23.363,1386.089
23.367,1385.348
23.371,1396.328
23.375,1406.601
23.379,1374.367
23.383,1387.537
23.387,1388.278
23.391,1368.506
23.395,1399.999
23.398,1353.855
23.402,1380.969
23.406,1349.442
23.410,1344.323
23.414,1367.024
23.418,1332.601
23.422,1359.715
23.426,1340.651
23.430,1309.159
23.434,1323.810
23.438,1288.646
23.441,1318.691
23.445,1284.975
23.449,1279.855
23.453,1278.373
23.457,1258.602
23.461,1277.666
23.465,1290.835
23.469,1268.875
23.473,1290.094
23.477,1252.741
23.480,1282.044
23.484,1254.930
23.488,1288.646
23.492,1268.875
23.496,1290.094
23.500,1301.108
23.504,1290.094
23.508,1284.234
23.512,1318.691
23.516,1339.203
23.520,1307.677
23.523,1320.880
23.527,1354.596
23.531,1359.715
23.535,1358.233
23.539,1376.557
23.543,1358.974
23.547,1373.626
23.551,1372.885
23.555,1377.298
23.559,1386.830
23.563,1394.880
23.566,1401.481
23.570,1405.119
23.574,1414.651
23.578,1452.746
23.582,1432.974
23.586,1426.372
23.590,1449.074
23.594,1424.924
23.598,1465.949
23.602,1432.974
23.605,1435.164
23.609,1444.696
23.613,1432.233
23.617,1459.347
23.621,1471.069
23.625,1466.656
23.629,1445.437
23.633,1451.297
23.637,1495.960
23.641,1473.999
23.645,1470.328
23.648,1516.472
23.652,1506.233
23.656,1497.442
23.660,1490.099
23.664,1526.745
23.668,1521.626
23.672,1501.821
23.676,1549.447
23.680,1526.004
23.684,1534.795
23.688,1523.815
23.691,1536.277
23.695,1545.776
23.699,1509.904
23.703,1533.347
23.707,1523.815
23.711,1509.904
23.715,1527.486
23.719,1491.581
23.723,1514.283
23.727,1487.169
23.730,1480.601
23.734,1486.461
23.738,1470.328
23.742,1484.979
23.746,1479.860
23.750,1466.656
23.754,1479.119
23.758,1483.531
23.762,1468.138
23.766,1469.587
23.770,1468.138
23.773,1459.347
23.777,1462.278
23.781,1457.158
23.785,1436.646
23.789,1446.885
23.793,1448.367
23.797,1432.233
23.801,1399.999
23.805,1433.715
23.809,1423.442
23.813,1393.398
23.816,1375.816
23.820,1405.119
23.824,1405.860
23.828,1397.069
23.832,1385.348
23.836,1375.816
23.840,1364.094
23.844,1386.830
23.848,1363.387
23.852,1349.442
23.855,1354.596
23.859,1361.164
23.863,1370.696
23.867,1371.437
23.871,1383.158
23.875,1395.621
23.879,1413.910
23.883,1466.656
23.887,1463.019
23.891,1460.796
23.895,1490.099
23.898,1508.422
23.902,1554.567
23.906,1560.427
23.910,1592.661
23.914,1621.965
23.918,1637.358
23.922,1659.352
23.926,1700.377
23.930,1709.875
23.934,1749.452
23.938,1769.223
23.941,1773.636
23.945,1789.028
23.949,1806.610
23.953,1826.382
23.957,1847.635
23.961,1827.830
23.965,1817.591
23.969,1819.780
23.973,1821.970
23.977,1797.819
23.980,1802.198
23.984,1742.850
23.988,1701.825
23.992,1671.073
23.996,1632.979
24.000,1596.333
24.004,1547.258
24.008,1476.929
24.012,1432.974
24.016,1385.348
24.020,1358.233
24.023,1287.164
24.027,1238.089
24.031,1194.134
24.035,1146.507
24.039,1084.263
24.043,1022.725
24.047,1002.213
24.051,956.776
24.055,904.029
24.059,858.592
24.063,797.055
24.066,802.208
24.070,730.398
24.074,718.676
24.078,723.796
24.082,701.835
24.086,692.303
24.090,691.562
24.094,684.994
24.098,677.652
24.102,696.716
24.105,706.214
24.109,706.955
24.113,739.930
24.117,780.214
24.121,801.467
24.125,815.378
24.129,854.954
24.133,917.233
24.137,972.168
24.141,975.840
24.145,1028.586
24.148,1098.914
24.152,1132.597
24.156,1153.109
24.160,1234.418
24.164,1243.950
24.168,1272.512
24.172,1317.209
24.176,1346.512
24.180,1385.348
24.184,1443.214
24.188,1460.796
24.191,1468.138
24.195,1498.183
24.199,1538.467
24.203,1534.795
24.207,1554.567
24.211,1542.845
24.215,1558.238
24.219,1579.492
24.223,1586.801
24.227,1547.999
24.230,1557.497
24.234,1553.859
24.238,1520.144
24.242,1502.562
24.246,1498.890
24.250,1514.283
24.254,1501.113
24.258,1489.392
24.262,1443.955
24.266,1450.556
24.270,1455.676
24.273,1425.631
24.277,1400.740
24.281,1389.019
24.285,1378.746
24.289,1389.019
24.293,1392.690
24.297,1373.626
24.301,1358.233
24.305,1372.178
24.309,1372.885
24.313,1369.955
24.316,1352.373
24.320,1341.392
24.324,1325.292
24.328,1334.791
24.332,1353.114
24.336,1356.044
24.340,1372.885
24.344,1375.108
24.348,1379.487
24.352,1368.506
24.355,1388.278
24.359,1391.949
24.363,1390.467
24.367,1396.328
24.371,1402.930
24.375,1404.412
24.379,1386.830
24.383,1378.039
24.387,1379.487
24.391,1426.372
24.395,1427.113
24.398,1404.412
24.402,1402.189
24.406,1432.974
24.410,1457.865
24.414,1436.646
24.418,1427.854
24.422,1475.447
24.426,1479.119
24.430,1457.865
24.434,1471.810
24.438,1497.442
24.441,1472.517
24.445,1494.511
24.449,1463.726
24.453,1498.183
24.457,1468.879
24.461,1480.601
24.465,1512.094
24.469,1472.517
24.473,1489.392
24.477,1520.885
24.480,1484.979
24.484,1505.492
24.488,1518.695
24.492,1487.169
24.496,1512.094
24.500,1485.720
24.504,1499.631
24.508,1497.442
24.512,1484.979
24.516,1513.542
24.520,1467.397
24.523,1463.019
24.527,1460.796
24.531,1487.910
24.535,1473.999
24.539,1461.537
24.543,1434.423
24.547,1410.980
24.551,1390.467
24.555,1362.646
24.559,1355.303
24.563,1355.303
24.566,1307.677
24.570,1322.328
24.574,1287.164
24.578,1301.816
24.582,1275.443
24.586,1298.178
24.590,1334.791
24.594,1350.924
24.598,1356.785
24.602,1407.342
24.605,1453.487
24.609,1546.517
24.613,1576.561
24.617,1662.282
24.621,1733.318
24.625,1814.661
24.629,1915.033
24.633,1973.640
24.637,2046.899
24.641,2117.227
24.645,2164.820
24.648,2224.909
24.652,2281.327
24.656,2312.820
24.660,2334.814
24.664,2339.193
24.668,2331.884
24.672,2320.162
24.676,2286.447
24.680,2245.422
24.684,2186.074
24.688,2142.119
24.691,2054.949
24.695,1978.019
24.699,1901.089
24.703,1824.900
24.707,1740.661
24.711,1636.617
24.715,1553.859
24.719,1479.860
24.723,1353.855
24.727,1317.209
24.730,1236.641
24.734,1148.730
24.738,1082.040
24.742,1027.104
24.746,973.617
24.750,918.681
24.754,903.288
24.758,870.314
24.762,842.492
24.766,795.606
24.770,829.289
24.773,805.139
24.777,788.264
24.781,828.581
24.785,813.189
24.789,805.139
24.793,822.721
24.797,881.328
24.801,904.029
24.805,926.024
24.809,944.313
24.813,958.965
24.816,961.895
24.820,1031.516
24.824,1027.104
24.828,1077.661
24.832,1115.015
24.836,1106.964
24.840,1138.457
24.844,1202.184
24.848,1212.457
24.852,1218.318
24.855,1273.994
24.859,1301.816
24.863,1300.367
24.867,1331.860
24.871,1371.437
24.875,1388.278
24.879,1422.701
24.883,1415.392
24.887,1435.164
24.891,1444.696
24.895,1445.437
24.898,1484.979
24.902,1500.372
24.906,1504.751
24.910,1502.562
24.914,1499.631
24.918,1486.461
24.922,1472.517
24.926,1457.865
24.930,1481.308
24.934,1485.720
24.938,1466.656
24.941,1432.233
24.945,1427.113
24.949,1432.974
24.953,1432.233
24.957,1428.562
24.961,1428.562
24.965,1416.133
24.969,1378.039
24.973,1364.094
24.977,1354.596
24.980,1369.955
24.984,1362.646
24.988,1335.532
24.992,1343.582
24.996,1365.576
25.000,1353.855
25.004,1353.855
25.008,1342.133
25.012,1342.133
25.016,1356.785
25.020,1350.924
25.023,1337.721
25.027,1328.223
25.031,1323.069
25.035,1318.691
25.039,1325.292
25.043,1345.064
25.047,1358.974
25.051,1362.646
25.055,1325.292
25.059,1349.442
25.063,1362.646
25.066,1387.537
25.070,1370.696
25.074,1386.830
25.078,1423.442
25.082,1433.715
25.086,1411.721
25.090,1448.367
25.094,1468.138
25.098,1471.810
25.102,1487.169
25.105,1473.999
25.109,1468.879
25.113,1470.328
25.117,1471.069
25.121,1510.612
25.125,1501.113
25.129,1513.542
25.133,1517.213
25.137,1496.701
25.141,1476.929
25.145,1501.113
25.148,1477.670
25.152,1516.472
25.156,1476.929
25.160,1471.810
25.164,1487.910
25.168,1509.163
25.172,1498.183
25.176,1465.208
25.180,1487.169
25.184,1498.183
25.188,1470.328
25.191,1483.531
25.195,1493.029
25.199,1465.949
25.203,1468.879
25.207,1481.308
25.211,1466.656
25.215,1469.587
25.219,1445.437
25.223,1463.019
25.227,1479.119
25.230,1433.715
25.234,1471.069
25.238,1439.576
25.242,1432.974
25.246,1465.208
25.250,1417.581
25.254,1420.512
25.258,1446.144
25.262,1435.164
25.266,1432.233
25.270,1438.835
25.273,1416.840
25.277,1409.531
25.281,1403.671
25.285,1406.601
25.289,1395.621
25.293,1385.348
25.297,1385.348
25.301,1383.158
25.305,1415.392
25.309,1416.840
25.313,1426.372
25.316,1399.999
25.320,1384.607
25.324,1396.328
25.328,1397.810
25.332,1407.342
25.336,1408.790
25.340,1434.423
25.344,1392.690
25.348,1405.860
25.352,1416.840
25.355,1413.910
25.359,1391.208
25.363,1394.139
25.367,1386.089
25.371,1399.258
25.375,1405.860
25.379,1396.328
25.383,1391.208
25.387,1390.467
25.391,1404.412
25.395,1397.810
25.398,1383.158
25.402,1376.557
25.406,1372.178
25.410,1377.298
25.414,1384.607
25.418,1394.880
25.422,1386.089
25.426,1389.019
25.430,1391.949
25.434,1433.715
25.438,1430.785
25.441,1402.930
25.445,1427.113
25.449,1439.576
25.453,1414.651
25.457,1452.005
25.461,1452.746
25.465,1427.854
25.469,1431.492
25.473,1434.423
25.477,1420.512
25.480,1454.935
25.484,1468.879
25.488,1428.562
25.492,1465.949
25.496,1430.785
25.500,1430.785
25.504,1438.835
25.508,1448.367
25.512,1464.467
25.516,1441.765
25.520,1419.771
25.523,1452.746
25.527,1441.024
25.531,1446.144
25.535,1445.437
25.539,1405.119
25.543,1388.278
25.547,1404.412
25.551,1415.392
25.555,1396.328
25.559,1394.139
25.563,1386.089
25.566,1367.765
25.570,1360.456
25.574,1346.512
25.578,1330.412
25.582,1295.955
25.586,1255.671
25.590,1275.443
25.594,1255.671
25.598,1207.337
25.602,1219.766
25.605,1202.184
25.609,1142.129
25.613,1163.382
25.617,1128.925
25.621,1107.705
25.625,1090.831
25.629,1072.541
25.633,1066.681
25.637,1046.875
25.641,1003.661
25.645,1016.124
25.648,1028.586
25.652,1013.934
25.656,1023.433
25.660,1025.656
25.664,1005.143
25.668,1011.711
25.672,1054.218
25.676,1066.681
25.680,1075.472
25.684,1082.040
25.688,1081.332
25.691,1138.457
25.695,1127.477
25.699,1159.711
25.703,1176.552
25.707,1241.019
25.711,1233.710
25.715,1290.094
25.719,1277.666
25.723,1334.791
25.727,1320.880
25.730,1344.323
25.734,1404.412
25.738,1402.930
25.742,1402.930
25.746,1456.417
25.750,1454.935
25.754,1449.815
25.758,1479.119
25.762,1468.138
25.766,1465.208
25.770,1470.328
25.773,1498.183
25.777,1468.138
25.781,1479.860
25.785,1496.701
25.789,1470.328
25.793,1442.506
25.797,1468.138
25.801,1424.924
25.805,1451.297
25.809,1432.974
25.813,1396.328
25.816,1383.899
25.820,1381.676
25.824,1408.790
25.828,1387.537
25.832,1361.164
25.836,1351.665
25.840,1352.373
25.844,1364.835
25.848,1345.805
25.852,1349.442
25.855,1336.273
25.859,1320.880
25.863,1301.816
25.867,1293.025
25.871,1309.159
25.875,1327.482
25.879,1327.482
25.883,1311.348
25.887,1309.159
25.891,1310.607
25.895,1313.537
25.898,1304.746
25.902,1323.810
25.906,1347.994
25.910,1347.253
25.914,1338.462
25.918,1327.482
25.922,1331.860
25.926,1362.646
25.930,1384.607
25.934,1383.158
25.938,1390.467
25.941,1402.189
25.945,1392.690
25.949,1393.398
25.953,1393.398
25.957,1418.322
25.961,1430.785
25.965,1398.551
25.969,1394.139
25.973,1402.930
25.977,1418.322
25.980,1429.303
25.984,1432.233
25.988,1435.164
25.992,1441.024
25.996,1412.462
26.000,1430.785
26.004,1438.835
26.008,1419.771
26.012,1409.531
26.016,1409.531
26.020,1439.576
26.023,1452.005
26.027,1445.437
26.031,1431.492
26.035,1413.910
26.039,1436.646
26.043,1465.208
26.047,1437.353
26.051,1434.423
26.055,1447.626
26.059,1469.587
26.063,1471.069
26.066,1435.164
26.070,1471.810
26.074,1441.024
26.078,1434.423
26.082,1430.044
26.086,1423.442
26.090,1428.562
26.094,1416.840
26.098,1413.203
26.102,1418.322
26.105,1430.785
26.109,1397.810
26.113,1372.178
26.117,1357.526
26.121,1347.994
26.125,1361.905
26.129,1358.233
26.133,1306.228
26.137,1337.721
26.141,1281.303
26.145,1307.677
26.148,1290.835
26.152,1268.875
26.156,1256.412
26.160,1287.905
26.164,1271.064
26.168,1335.532
26.172,1364.094
26.176,1358.233
26.180,1403.671
26.184,1458.606
26.188,1532.606
26.191,1594.884
26.195,1643.218
26.199,1732.611
26.203,1786.805
26.207,1841.775
26.211,1887.178
26.215,1952.387
26.219,1989.740
26.223,2009.512
26.227,2054.208
26.230,2062.258
26.234,2074.721
26.238,2064.481
26.242,2035.178
26.246,1998.531
26.250,1998.531
26.254,1930.392
26.258,1865.925
26.262,1809.541
26.266,1747.262
26.270,1695.224
26.273,1628.567
26.277,1556.049
26.281,1493.770
26.285,1420.512
26.289,1383.899
26.293,1340.651
26.297,1288.646
26.301,1225.627
26.305,1197.805
26.309,1117.945
26.313,1108.413
26.316,1055.667
26.320,1065.199
26.324,1008.074
26.328,1032.224
26.332,1004.402
26.336,972.168
26.340,967.756
26.344,1005.143
26.348,989.010
26.352,989.010
26.355,991.940
26.359,975.099
26.363,1019.795
26.367,1009.522
26.371,1030.034
26.375,1008.074
26.379,1024.915
26.383,1047.616
26.387,1083.522
26.391,1089.382
26.395,1108.413
26.398,1130.407
26.402,1147.248
26.406,1157.521
26.410,1156.039
26.414,1177.293
26.418,1242.502
26.422,1257.861
26.426,1253.482
26.430,1314.278
26.434,1301.108
26.438,1354.596
26.441,1338.462
26.445,1375.108
26.449,1414.651
26.453,1432.233
26.457,1441.024
26.461,1453.487
26.465,1452.005
26.469,1453.487
26.473,1465.208
26.477,1452.746
26.480,1488.651
26.484,1458.606
26.488,1445.437
26.492,1481.308
26.496,1446.144
26.500,1466.656
26.504,1452.005
26.508,1423.442
26.512,1411.721
26.516,1441.024
26.520,1391.208
26.523,1382.417
26.527,1386.089
26.531,1402.189
26.535,1383.899
26.539,1338.462
26.543,1351.665
26.547,1328.223
26.551,1334.083
26.555,1300.367
26.559,1338.462
26.563,1291.576
26.566,1328.223
26.570,1283.526
26.574,1320.880
26.578,1306.228
26.582,1276.184
26.586,1319.398
26.590,1283.526
26.594,1314.278
26.598,1311.348
26.602,1282.785
26.605,1293.025
26.609,1320.139
26.613,1297.437
26.617,1331.860
26.621,1331.860
26.625,1308.418
26.629,1334.791
26.633,1365.576
26.637,1329.671
26.641,1346.512
26.645,1381.676
26.648,1343.582
26.652,1375.108
26.656,1393.398
26.660,1390.467
26.664,1386.089
26.668,1413.203
26.672,1430.785
26.676,1396.328
26.680,1413.910
26.684,1439.576
26.688,1442.506
26.691,1428.562
26.695,1441.765
26.699,1422.701
26.703,1427.854
26.707,1434.423
26.711,1441.765
26.715,1447.626
26.719,1462.278
26.723,1454.935
26.727,1475.447
26.730,1495.252
26.734,1462.278
26.738,1468.138
26.742,1502.562
26.746,1479.119
26.750,1475.447
26.754,1452.746
26.758,1462.278
26.762,1446.144
26.766,1439.576
26.770,1435.164
26.773,1445.437
26.777,1451.297
26.781,1445.437
26.785,1458.606
26.789,1456.417
26.793,1414.651
26.797,1417.581
26.801,1428.562
26.805,1428.562
26.809,1416.133
26.813,1399.999
26.816,1434.423
26.820,1416.133
26.824,1391.208
26.828,1416.840
26.832,1430.044
26.836,1398.551
26.840,1430.044
26.844,1408.790
26.848,1421.994
26.852,1456.417
26.855,1430.785
26.859,1438.094
26.863,1459.347
26.867,1481.308
26.871,1484.979
26.875,1447.626
26.879,1473.999
26.883,1473.258
26.887,1468.879
26.891,1459.347
26.895,1461.537
26.898,1471.069
26.902,1453.487
26.906,1452.005
26.910,1490.840
26.914,1477.670
26.918,1490.099
26.922,1457.865
26.926,1470.328
26.930,1487.169
26.934,1481.308
26.938,1479.119
26.941,1510.612
26.945,1526.745
26.949,1539.208
26.953,1520.144
26.957,1555.308
26.961,1553.859
26.965,1574.372
26.969,1572.149
26.973,1619.034
26.977,1600.004
26.980,1635.168
26.984,1635.168
26.988,1654.940
26.992,1681.313
26.996,1701.084
27.000,1711.357
27.004,1726.750
27.008,1742.109
27.012,1738.471
27.016,1745.780
27.020,1768.516
27.023,1778.755
27.027,1736.989
27.031,1728.939
27.035,1705.497
27.039,1721.597
27.043,1664.472
27.047,1679.123
27.051,1620.516
27.055,1606.606
27.059,1582.422
27.063,1523.074
27.066,1476.188
27.070,1472.517
27.074,1404.412
27.078,1371.437
27.082,1319.398
27.086,1320.880
27.090,1278.373
27.094,1225.627
27.098,1190.463
27.102,1165.571
27.105,1095.243
27.109,1056.408
27.113,1056.408
27.117,1030.775
27.121,997.801
27.125,943.606
27.129,926.024
27.133,886.447
27.137,875.467
27.141,835.890
27.145,833.701
27.148,801.467
27.152,778.765
27.156,761.183
27.160,739.189
27.164,728.208
27.168,714.298
27.172,710.626
27.176,692.303
27.180,695.234
27.184,668.860
27.188,716.487
27.191,710.626
27.195,760.442
27.199,754.582
27.203,771.423
27.207,815.378
27.211,875.467
27.215,904.770
27.219,945.795
27.223,967.756
27.227,994.870
27.230,1035.895
27.234,1078.402
27.238,1125.995
27.242,1212.457
27.246,1257.153
27.250,1276.925
27.254,1330.412
27.258,1391.949
27.262,1395.621
27.266,1457.158
27.270,1450.556
27.273,1506.233
27.277,1502.562
27.281,1515.765
27.285,1547.258
27.289,1564.840
27.293,1541.397
27.297,1551.636
27.301,1561.910
27.305,1584.611
27.309,1543.586
27.313,1536.277
27.316,1537.726
27.320,1513.542
27.324,1533.347
27.328,1498.890
27.332,1459.347
27.336,1471.810
27.340,1458.606
27.344,1443.955
27.348,1433.715
27.352,1420.512
27.355,1416.133
27.359,1405.860
27.363,1358.974
27.367,1362.646
27.371,1386.089
27.375,1336.273
27.379,1351.665
27.383,1339.944
27.387,1328.223
27.391,1347.253
27.395,1348.735
27.398,1333.342
27.402,1358.233
27.406,1317.950
27.410,1357.526
27.414,1328.930
27.418,1362.646
27.422,1335.532
27.426,1328.930
27.430,1324.551
27.434,1367.024
27.438,1340.651
27.441,1366.317
27.445,1345.064
27.449,1370.696
27.453,1383.899
27.457,1347.253
27.461,1365.576
27.465,1393.398
27.469,1358.233
27.473,1393.398
27.477,1378.746
27.480,1354.596
27.484,1373.626
27.488,1396.328
27.492,1350.183
27.496,1369.955
27.500,1378.746
27.504,1350.183
27.508,1367.024
27.512,1392.690
27.516,1363.387
27.520,1370.696
27.523,1353.114
27.527,1377.298
27.531,1394.880
27.535,1364.835
27.539,1382.417
27.543,1406.601
27.547,1376.557
27.551,1383.158
27.555,1408.790
27.559,1387.537
27.563,1413.203
27.566,1435.905
27.570,1398.551
27.574,1441.765
27.578,1430.785
27.582,1405.860
27.586,1443.955
27.590,1419.771
27.594,1454.228
27.598,1422.701
27.602,1446.885
27.605,1472.517
27.609,1460.088
27.613,1479.860
27.617,1490.840
27.621,1459.347
27.625,1486.461
27.629,1502.562
27.633,1467.397
27.637,1479.119
27.641,1510.612
27.645,1512.835
27.648,1505.492
27.652,1476.929
27.656,1499.631
27.660,1499.631
27.664,1479.119
27.668,1485.720
27.672,1499.631
27.676,1515.024
27.680,1474.740
27.684,1503.303
27.688,1505.492
27.691,1484.238
27.695,1465.949
27.699,1470.328
27.703,1457.865
27.707,1445.437
27.711,1429.303
27.715,1367.024
27.719,1388.278
27.723,1328.930
27.727,1351.665
27.730,1322.328
27.734,1279.114
27.738,1246.880
27.742,1250.552
27.746,1217.577
27.750,1194.875
27.754,1190.463
27.758,1186.084
27.762,1198.546
27.766,1210.975
27.770,1236.641
27.773,1229.298
27.777,1293.025
27.781,1287.905
27.785,1369.955
27.789,1394.880
27.793,1463.726
27.797,1515.765
27.801,1550.929
27.805,1622.706
27.809,1652.009
27.813,1717.959
27.816,1763.363
27.820,1832.243
27.824,1856.426
27.828,1905.501
27.832,1956.058
27.836,1945.785
27.840,1960.437
27.844,1962.626
27.848,1961.919
27.852,1947.267
27.855,1947.975
27.859,1934.064
27.863,1862.287
27.867,1838.103
27.871,1781.686
27.875,1748.711
27.879,1717.959
27.883,1654.940
27.887,1624.895
27.891,1581.681
27.895,1533.347
27.898,1493.029
27.902,1453.487
27.906,1369.955
27.910,1355.303
27.914,1302.557
27.918,1317.209
27.922,1277.666
27.926,1271.805
27.930,1252.741
27.934,1238.830
27.938,1226.368
27.941,1218.318
27.945,1216.128
27.949,1213.198
27.953,1211.716
27.957,1208.045
27.961,1197.064
27.965,1198.546
27.969,1208.045
27.973,1205.114
27.977,1193.393
27.980,1183.895
27.984,1185.343
27.988,1207.337
27.992,1226.368
27.996,1209.527
28.000,1218.318
28.004,1231.487
28.008,1224.919
28.012,1226.368
28.016,1275.443
28.020,1276.925
28.023,1280.596
28.027,1275.443
28.031,1314.278
28.035,1335.532
28.039,1326.000
28.043,1371.437
28.047,1392.690
28.051,1419.063
28.055,1402.930
28.059,1408.049
28.063,1427.854
28.066,1446.144
28.070,1473.258
28.074,1493.029
28.078,1471.069
28.082,1469.587
28.086,1466.656
28.090,1485.720
28.094,1507.681
28.098,1493.770
28.102,1455.676
28.105,1456.417
28.109,1443.955
28.113,1441.024
28.117,1454.228
28.121,1438.835
28.125,1413.203
28.129,1411.721
28.133,1400.740
28.137,1389.019
28.141,1391.208
28.145,1386.089
28.148,1400.740
28.152,1388.278
28.156,1377.298
28.160,1341.392
28.164,1342.133
28.168,1372.885
28.172,1335.532
28.176,1334.791
28.180,1360.456
28.184,1317.950
28.188,1331.153
28.191,1345.064
28.195,1337.721
28.199,1328.223
28.203,1356.044
28.207,1332.601
28.211,1330.412
28.215,1333.342
28.219,1367.024
28.223,1331.860
28.227,1348.735
28.230,1385.348
28.234,1370.696
28.238,1356.044
28.242,1399.999
28.246,1414.651
28.250,1394.139
28.254,1413.203
28.258,1431.492
28.262,1399.258
28.266,1422.701
28.270,1452.005
28.273,1416.840
28.277,1435.164
28.281,1454.228
28.285,1463.019
28.289,1479.860
28.293,1442.506
28.297,1449.815
28.301,1464.467
28.305,1468.879
28.309,1483.531
28.313,1495.252
28.316,1483.531
28.320,1481.308
28.324,1481.308
28.328,1487.910
28.332,1499.631
28.336,1514.283
28.340,1513.542
28.344,1504.751
28.348,1510.612
28.352,1506.974
28.355,1489.392
28.359,1496.701
28.363,1492.322
28.367,1488.651
28.371,1480.601
28.375,1482.049
28.379,1518.695
28.383,1517.954
28.387,1507.681
28.391,1515.765
28.395,1516.472
28.398,1509.163
28.402,1498.183
28.406,1487.169
28.410,1493.029
28.414,1490.840
28.418,1498.183
28.422,1480.601
28.426,1475.447
28.430,1492.322
28.434,1486.461
28.438,1483.531
28.441,1444.696
28.445,1444.696
28.449,1476.188
28.453,1469.587
28.457,1427.854
28.461,1432.233
28.465,1420.512
28.469,1430.785
28.473,1435.164
28.477,1398.551
28.480,1375.108
28.484,1375.816
28.488,1380.228
28.492,1344.323
28.496,1345.805
28.500,1338.462
28.504,1327.482
28.508,1288.646
28.512,1297.437
28.516,1288.646
28.520,1260.791
28.523,1246.139
28.527,1239.571
28.531,1263.014
28.535,1242.502
28.539,1214.646
28.543,1236.641
28.547,1196.323
28.551,1236.641
28.555,1215.387
28.559,1214.646
28.563,1222.696
28.566,1253.482
28.570,1219.059
28.574,1267.393
28.578,1247.621
28.582,1266.652
28.586,1272.512
28.590,1313.537
28.594,1329.671
28.598,1337.014
28.602,1354.596
28.605,1383.158
28.609,1414.651
28.613,1432.233
28.617,1444.696
28.621,1506.974
28.625,1501.113
28.629,1519.403
28.633,1539.915
28.637,1541.397
28.641,1547.258
28.645,1587.542
28.648,1556.790
28.652,1593.402
28.656,1584.611
28.660,1567.029
28.664,1570.701
28.668,1558.979
28.672,1514.283
28.676,1495.960
28.680,1477.670
28.684,1455.676
28.688,1435.905
28.691,1430.044
28.695,1427.854
28.699,1393.398
28.703,1378.746
28.707,1339.203
28.711,1284.234
28.715,1296.696
28.719,1244.691
28.723,1222.696
28.727,1230.039
28.730,1203.666
28.734,1182.413
28.738,1166.312
28.742,1139.939
28.746,1082.781
28.750,1055.667
28.754,1053.477
28.758,1018.313
28.762,1027.104
28.766,983.149
28.770,998.542
28.773,975.099
28.777,948.726
28.781,949.467
28.785,965.567
28.789,951.656
28.793,945.054
28.797,947.244
28.801,963.377
28.805,958.965
28.809,976.547
28.813,987.561
28.816,1018.313
28.820,1013.934
28.824,1071.059
28.828,1095.243
28.832,1108.413
28.836,1168.502
28.840,1199.995
28.844,1227.109
28.848,1235.159
28.852,1257.861
28.855,1326.000
28.859,1321.621
28.863,1363.387
28.867,1388.278
28.871,1446.885
28.875,1432.233
28.879,1450.556
28.883,1483.531
28.887,1494.511
28.891,1521.626
28.895,1553.118
28.898,1559.720
28.902,1547.999
28.906,1551.636
28.910,1539.915
28.914,1526.745
28.918,1533.347
28.922,1557.497
28.926,1545.068
28.930,1520.144
28.934,1528.194
28.938,1512.835
28.941,1500.372
28.945,1477.670
28.949,1482.790
28.953,1441.024
28.957,1445.437
28.961,1428.562
28.965,1422.701
28.969,1437.353
28.973,1397.069
28.977,1428.562
28.980,1386.089
28.984,1404.412
28.988,1393.398
28.992,1378.746
28.996,1380.228
29.000,1356.785
29.004,1382.417
29.008,1339.203
29.012,1363.387
29.016,1339.944
29.020,1366.317
29.023,1331.860
29.027,1341.392
29.031,1360.456
29.035,1317.950
29.039,1358.974
29.043,1336.273
29.047,1353.114
29.051,1341.392
29.055,1347.253
29.059,1339.203
29.063,1356.044
29.066,1375.816
29.070,1387.537
29.074,1388.278
29.078,1397.810
29.082,1402.930
29.086,1398.551
29.090,1400.740
29.094,1398.551
29.098,1399.999
29.102,1380.228
29.105,1384.607
29.109,1397.069
29.113,1422.701
29.117,1418.322
29.121,1408.049
29.125,1405.119
29.129,1449.815
29.133,1453.487
29.137,1457.865
29.141,1446.885
29.145,1423.442
29.148,1426.372
29.152,1470.328
29.156,1460.796
29.160,1437.353
29.164,1472.517
29.168,1439.576
29.172,1484.238
29.176,1484.979
29.180,1464.467
29.184,1449.074
29.188,1495.960
29.191,1456.417
29.195,1492.322
29.199,1468.879
29.203,1499.631
29.207,1470.328
29.211,1488.651
29.215,1490.099
29.219,1495.960
29.223,1490.840
29.227,1498.890
29.230,1487.910
29.234,1504.044
29.238,1536.985
29.242,1517.213
29.246,1501.113
29.250,1501.113
29.254,1509.904
29.258,1542.845
29.262,1509.904
29.266,1541.397
29.270,1506.974
29.273,1495.960
29.277,1530.417
29.281,1507.681
29.285,1487.169
29.289,1487.910
29.293,1509.904
29.297,1520.885
29.301,1518.695
29.305,1482.049
29.309,1484.979
29.313,1499.631
29.316,1473.258
29.320,1454.228
29.324,1470.328
29.328,1478.378
29.332,1457.865
29.336,1445.437
29.340,1432.233
29.344,1421.253
29.348,1363.387
29.352,1364.835
29.355,1374.367
29.359,1327.482
29.363,1309.900
29.367,1312.089
29.371,1288.646
29.375,1265.944
29.379,1265.203
29.383,1241.760
29.387,1260.791
29.391,1213.198
29.395,1243.950
29.398,1258.602
29.402,1222.696
29.406,1252.741
29.410,1295.248
29.414,1321.621
29.418,1348.735
29.422,1372.885
29.426,1389.760
29.430,1424.183
29.434,1497.442
29.438,1559.720
